-6.27125
-6.27875
-6.28375
-6.2925
-6.29375
-6.29
-6.28125
-6.28
-6.27875
-6.27875
-6.28375
-6.285
-6.29625
-6.31125
-6.3275
-6.34
-6.33625
-6.3375
-6.35375
-6.36875
-6.3775
-6.37875
-6.3725
-6.37
-6.36625
-6.36125
-6.355
-6.3525
-6.3575
-6.3575
-6.36125
-6.36125
-6.36375
-6.35625
-6.31375
-6.22875
-6.10625
-5.97875
-5.86125
-5.77625
-5.75
-5.79375
-5.8925
-6.015
-6.12
-6.1925
-6.23
-6.25875
-6.28375
-6.3075
-6.32
-6.325
-6.33375
-6.34375
-6.35
-6.355
-6.35125
-6.34625
-6.3425
-6.3375
-6.3275
-6.3175
-6.3125
-6.31125
-6.30875
-6.30625
-6.3
-6.3
-6.30875
-6.31125
-6.31125
-6.30375
-6.3
-6.295
-6.295
-6.29375
-6.29125
-6.2825
-6.28375
-6.27625
-6.27
-6.26625
-6.27
-6.27625
-6.27875
-6.27625
-6.27
-6.26875
-6.27125
-6.275
-6.27375
-6.26875
-6.26625
-6.2725
-6.28125
-6.28625
-6.28625
-6.28125
-6.27875
-6.27375
-6.265
-6.25625
-6.2525
-6.255
-6.25125
-6.2525
-6.24875
-6.2525
-6.255
-6.26125
-6.25875
-6.2625
-6.26875
-6.28
-6.2925
-6.31125
-6.33
-6.34375
-6.36125
-6.375
-6.38625
-6.3925
-6.40125
-6.40875
-6.4125
-6.42
-6.42625
-6.4325
-6.4375
-6.44
-6.43875
-6.43875
-6.44
-6.4425
-6.44375
-6.44125
-6.4425
-6.445
-6.4525
-6.455
-6.455
-6.4525
-6.45875
-6.46375
-6.47625
-6.49
-6.4975
-6.5025
-6.51125
-6.5225
-6.53125
-6.53375
-6.5375
-6.535
-6.535
-6.53125
-6.52
-6.51125
-6.50875
-6.50875
-6.5075
-6.5
-6.5
-6.50375
-6.50875
-6.51625
-6.51625
-6.52
-6.525
-6.53
-6.525
-6.52375
-6.5225
-6.52875
-6.5325
-6.52875
-6.515
-6.50375
-6.50125
-6.49625
-6.48875
-6.48625
-6.4875
-6.495
-6.49125
-6.46125
-6.3875
-6.28375
-6.1675
-6.04875
-5.94875
-5.88875
-5.9075
-5.99125
-6.10625
-6.205
-6.27875
-6.32625
-6.3625
-6.38625
-6.4025
-6.4125
-6.42625
-6.4375
-6.44625
-6.445
-6.43875
-6.43125
-6.43125
-6.43125
-6.42375
-6.42125
-6.42375
-6.43125
-6.435
-6.4325
-6.43
-6.42625
-6.43
-6.4325
-6.43125
-6.42875
-6.4275
-6.4325
-6.435
-6.43375
-6.4275
-6.42625
-6.42875
-6.43125
-6.42875
-6.42875
-6.42625
-6.42375
-6.41375
-6.41
-6.40375
-6.40125
-6.40375
-6.40375
-6.4025
-6.40125
-6.4025
-6.40875
-6.41375
-6.41125
-6.405
-6.39875
-6.39875
-6.39875
-6.39
-6.37875
-6.3725
-6.37375
-6.37875
-6.37875
-6.37875
-6.3825
-6.3875
-6.39125
-6.39625
-6.39375
-6.395
-6.39
-6.3875
-6.37625
-6.365
-6.35125
-6.34375
-6.335
-6.32
-6.30125
-6.29
-6.2825
-6.275
-6.26875
-6.26125
-6.25875
-6.27
-6.27875
-6.285
-6.28875
-6.2925
-6.29625
-6.30375
-6.31125
-6.31625
-6.32625
-6.33625
-6.35
-6.34375
-6.33375
-6.325
-6.31625
-6.2925
-6.27125
-6.24875
-6.23125
-6.21375
-6.20375
-6.1875
-6.1725
-6.16125
-6.1575
-6.15375
-6.145
-6.135
-6.12125
-6.10625
-6.10125
-6.09625
-6.0925
-6.09875
-6.1125
-6.12125
-6.1325
-6.14375
-6.15125
-6.16
-6.1625
-6.165
-6.16625
-6.18
-6.1925
-6.20625
-6.21375
-6.2225
-6.2325
-6.2525
-6.26375
-6.2775
-6.28625
-6.29375
-6.30625
-6.32
-6.32
-6.28875
-6.22375
-6.12375
-6
-5.87375
-5.7725
-5.72125
-5.7475
-5.8375
-5.95
-6.05
-6.1225
-6.16875
-6.19375
-6.20625
-6.2175
-6.22625
-6.23625
-6.23875
-6.24125
-6.24375
-6.24625
-6.245
-6.245
-6.23875
-6.23375
-6.23375
-6.24
-6.245
-6.24625
-6.2475
-6.255
-6.26875
-6.275
-6.2725
-6.2725
-6.27375
-6.285
-6.295
-6.30375
-6.29625
-6.2975
-6.29625
-6.2975
-6.29625
-6.2925
-6.295
-6.2975
-6.30375
-6.3025
-6.2975
-6.29
-6.29625
-6.30125
-6.30875
-6.3075
-6.315
-6.325
-6.33
-6.3325
-6.33625
-6.33875
-6.34125
-6.345
-6.34625
-6.33875
-6.3325
-6.32875
-6.32375
-6.3175
-6.3075
-6.30375
-6.30625
-6.305
-6.295
-6.2875
-6.285
-6.29625
-6.3025
-6.3075
-6.31125
-6.3225
-6.33125
-6.3425
-6.34875
-6.35125
-6.35625
-6.36625
-6.3725
-6.37875
-6.38
-6.3825
-6.3925
-6.40125
-6.41375
-6.4325
-6.4525
-6.47125
-6.485
-6.495
-6.49875
-6.505
-6.515
-6.52
-6.52
-6.52
-6.52875
-6.535
-6.5425
-6.54375
-6.54875
-6.55125
-6.555
-6.55375
-6.55625
-6.55625
-6.555
-6.54875
-6.54375
-6.53
-6.51125
-6.49375
-6.4775
-6.46125
-6.445
-6.4275
-6.41125
-6.4025
-6.39875
-6.39
-6.3875
-6.39375
-6.40625
-6.41625
-6.41875
-6.415
-6.40875
-6.405
-6.40375
-6.40125
-6.38625
-6.37875
-6.37375
-6.37375
-6.36875
-6.37125
-6.3725
-6.37875
-6.375
-6.37375
-6.3675
-6.365
-6.3725
-6.38
-6.375
-6.33625
-6.26125
-6.16
-6.045
-5.9375
-5.85625
-5.84
-5.8925
-5.995
-6.14375
-6.3125
-6.45
-6.54875
-6.6125
-6.6475
-6.67
-6.6825
-6.695
-6.6975
-6.69875
-6.6925
-6.69625
-6.695
-6.69375
-6.685
-6.67
-6.65875
-6.6475
-6.635
-6.61375
-6.59625
-6.58
-6.565
-6.5475
-6.5275
-6.51
-6.4925
-6.48
-6.46875
-6.4575
-6.44625
-6.44
-6.4375
-6.4325
-6.42875
-6.42875
-6.435
-6.44375
-6.45125
-6.445
-6.43625
-6.4275
-6.42625
-6.42
-6.415
-6.4075
-6.40125
-6.3975
-6.3925
-6.385
-6.37875
-6.375
-6.37375
-6.37875
-6.38
-6.38125
-6.3775
-6.37125
-6.36875
-6.36
-6.35
-6.34
-6.33625
-6.32875
-6.32125
-6.315
-6.31625
-6.32375
-6.3325
-6.34375
-6.3525
-6.3725
-6.38375
-6.39125
-6.3925
-6.39375
-6.4
-6.40875
-6.415
-6.42
-6.4225
-6.425
-6.435
-6.44125
-6.44125
-6.44125
-6.44
-6.44375
-6.44625
-6.44375
-6.4375
-6.4375
-6.44
-6.4375
-6.43625
-6.43625
-6.4425
-6.44875
-6.4525
-6.445
-6.44375
-6.43875
-6.44625
-6.44375
-6.435
-6.4175
-6.405
-6.3975
-6.39125
-6.38125
-6.3875
-6.40375
-6.42
-6.4325
-6.43375
-6.4325
-6.43
-6.43
-6.4325
-6.43
-6.4325
-6.44375
-6.45625
-6.4675
-6.475
-6.48625
-6.5
-6.525
-6.54
-6.54375
-6.55
-6.5625
-6.57125
-6.575
-6.5675
-6.56625
-6.5675
-6.5825
-6.585
-6.59125
-6.59375
-6.59125
-6.5925
-6.59125
-6.5875
-6.5925
-6.5975
-6.5825
-6.525
-6.42125
-6.29375
-6.1625
-6.045
-5.97125
-5.97375
-6.045
-6.16
-6.27375
-6.35
-6.3775
-6.39125
-6.4075
-6.425
-6.435
-6.445
-6.44625
-6.45125
-6.4475
-6.44125
-6.43625
-6.43375
-6.43125
-6.42875
-6.43
-6.43375
-6.435
-6.4325
-6.425
-6.41875
-6.4125
-6.405
-6.3975
-6.3925
-6.39
-6.38125
-6.38
-6.38125
-6.38
-6.3725
-6.3675
-6.35875
-6.35875
-6.3525
-6.3425
-6.32125
-6.3025
-6.28875
-6.28125
-6.2725
-6.2675
-6.265
-6.26625
-6.2675
-6.27125
-6.2775
-6.29
-6.30625
-6.31875
-6.33
-6.33375
-6.3375
-6.35
-6.36125
-6.36875
-6.37125
-6.375
-6.3825
-6.39625
-6.41
-6.42125
-6.4375
-6.45625
-6.48375
-6.50375
-6.52125
-6.5375
-6.56
-6.57625
-6.58875
-6.59125
-6.605
-6.62125
-6.63875
-6.655
-6.66
-6.66875
-6.67875
-6.69
-6.69875
-6.7025
-6.7125
-6.7225
-6.735
-6.7375
-6.73875
-6.74
-6.74625
-6.75625
-6.76125
-6.76375
-6.76625
-6.77125
-6.795
-6.83625
-6.8675
-6.895
-6.91125
-6.9275
-6.93875
-6.94875
-6.955
-6.97
-6.98375
-6.9875
-6.985
-6.97875
-6.98375
-6.99125
-6.9925
-6.97875
-6.965
-6.9525
-6.95125
-6.95
-6.94375
-6.9375
-6.9375
-6.94625
-6.95875
-6.96125
-6.9675
-6.97875
-6.995
-6.9975
-6.99875
-6.98875
-6.985
-6.9875
-6.9875
-6.9825
-6.97625
-6.97125
-6.97125
-6.96875
-6.9625
-6.95875
-6.96
-6.96125
-6.96125
-6.9625
-6.94625
-6.90125
-6.81625
-6.6975
-6.565
-6.4425
-6.36625
-6.365
-6.42375
-6.5225
-6.62625
-6.71
-6.76625
-6.80375
-6.8275
-6.845
-6.86125
-6.8775
-6.88125
-6.88125
-6.875
-6.87625
-6.8725
-6.87375
-6.86875
-6.86125
-6.85375
-6.84875
-6.8475
-6.84375
-6.83875
-6.835
-6.8375
-6.84
-6.83375
-6.8325
-6.8325
-6.83375
-6.83125
-6.82625
-6.81625
-6.81
-6.80125
-6.79
-6.775
-6.75875
-6.7475
-6.735
-6.72875
-6.72125
-6.72375
-6.72125
-6.7225
-6.71625
-6.70875
-6.7025
-6.7025
-6.70125
-6.69875
-6.6925
-6.68875
-6.69
-6.69375
-6.6925
-6.68875
-6.6875
-6.68875
-6.69375
-6.695
-6.69
-6.685
-6.6875
-6.6925
-6.6975
-6.69375
-6.695
-6.70375
-6.71625
-6.715
-6.7125
-6.70875
-6.71375
-6.7175
-6.7275
-6.7325
-6.73875
-6.7425
-6.7475
-6.75125
-6.75
-6.7475
-6.7475
-6.7525
-6.75375
-6.75125
-6.75
-6.75625
-6.77625
-6.7875
-6.79375
-6.79875
-6.81125
-6.82625
-6.8375
-6.84375
-6.845
-6.8525
-6.855
-6.855
-6.845
-6.8425
-6.84
-6.845
-6.84125
-6.84
-6.835
-6.83375
-6.83375
-6.83125
-6.82375
-6.8175
-6.8175
-6.8225
-6.82125
-6.815
-6.815
-6.81625
-6.81375
-6.8075
-6.8
-6.79625
-6.79875
-6.8
-6.7975
-6.7875
-6.7725
-6.7575
-6.74875
-6.74125
-6.73625
-6.73
-6.735
-6.74125
-6.75
-6.75
-6.75625
-6.76125
-6.77375
-6.7775
-6.77875
-6.7925
-6.8175
-6.835
-6.845
-6.84875
-6.85
-6.8525
-6.855
-6.855
-6.85125
-6.84875
-6.855
-6.86875
-6.8675
-6.83625
-6.7625
-6.65625
-6.53
-6.3975
-6.28
-6.21375
-6.21875
-6.2975
-6.41125
-6.52375
-6.60625
-6.665
-6.6975
-6.7225
-6.7375
-6.75
-6.76125
-6.77125
-6.77375
-6.7725
-6.76625
-6.765
-6.765
-6.7625
-6.7525
-6.74625
-6.745
-6.74625
-6.73875
-6.72875
-6.71875
-6.71125
-6.7075
-6.70125
-6.69375
-6.68625
-6.6925
-6.6925
-6.685
-6.675
-6.66625
-6.66375
-6.66625
-6.65875
-6.65125
-6.64
-6.63625
-6.63125
-6.6275
-6.62
-6.6125
-6.61
-6.60625
-6.60125
-6.59625
-6.59375
-6.59625
-6.6025
-6.6025
-6.6
-6.5975
-6.6
-6.6025
-6.6025
-6.59375
-6.585
-6.58375
-6.58375
-6.57875
-6.57375
-6.5625
-6.56375
-6.565
-6.5675
-6.56375
-6.57
-6.57875
-6.585
-6.585
-6.5825
-6.5825
-6.58625
-6.59375
-6.595
-6.5925
-6.58625
-6.59375
-6.6075
-6.61
-6.60375
-6.6
-6.60125
-6.605
-6.6025
-6.59875
-6.5975
-6.59875
-6.6025
-6.6075
-6.605
-6.61
-6.61125
-6.62
-6.62
-6.64
-6.68125
-6.72375
-6.755
-6.79
-6.80875
-6.82
-6.8275
-6.83625
-6.84
-6.83375
-6.83125
-6.8325
-6.83
-6.82375
-6.81625
-6.8125
-6.8125
-6.815
-6.815
-6.805
-6.79375
-6.79
-6.79125
-6.785
-6.775
-6.75875
-6.75375
-6.74625
-6.7375
-6.7175
-6.71
-6.70625
-6.7075
-6.7075
-6.71125
-6.715
-6.7275
-6.7425
-6.74875
-6.74625
-6.745
-6.74875
-6.74875
-6.7475
-6.7425
-6.73625
-6.7325
-6.73125
-6.73125
-6.7275
-6.7225
-6.7225
-6.72375
-6.7275
-6.72625
-6.71375
-6.6675
-6.585
-6.465
-6.3375
-6.20875
-6.115
-6.07875
-6.115
-6.20625
-6.33
-6.44375
-6.5225
-6.5725
-6.59625
-6.61625
-6.64
-6.65875
-6.66875
-6.67125
-6.67
-6.6725
-6.67125
-6.67125
-6.6675
-6.66125
-6.65875
-6.66125
-6.6625
-6.6575
-6.6525
-6.65625
-6.655
-6.65625
-6.6475
-6.63875
-6.6375
-6.64125
-6.6375
-6.62875
-6.62
-6.62
-6.625
-6.62375
-6.615
-6.60875
-6.60375
-6.60625
-6.605
-6.60125
-6.59625
-6.595
-6.5925
-6.595
-6.5925
-6.5875
-6.58625
-6.585
-6.58375
-6.5825
-6.5825
-6.57875
-6.58625
-6.5875
-6.5875
-6.5875
-6.59
-6.58625
-6.5875
-6.58375
-6.585
-6.59
-6.5975
-6.59625
-6.59375
-6.58875
-6.59875
-6.615
-6.62375
-6.62625
-6.62625
-6.63
-6.6375
-6.6375
-6.6325
-6.62875
-6.62875
-6.62625
-6.62375
-6.6125
-6.60875
-6.61
-6.61125
-6.61125
-6.6075
-6.605
-6.60375
-6.61375
-6.61625
-6.62125
-6.62375
-6.62625
-6.61375
-6.6
-6.58875
-6.59
-6.59125
-6.59375
-6.595
-6.58625
-6.5775
-6.575
-6.58125
-6.5825
-6.57875
-6.575
-6.5775
-6.585
-6.58875
-6.585
-6.58
-6.57375
-6.57125
-6.56625
-6.56625
-6.565
-6.57125
-6.57375
-6.57875
-6.55875
-6.5425
-6.53125
-6.5325
-6.53
-6.5275
-6.535
-6.55
-6.5725
-6.59
-6.605
-6.61625
-6.6275
-6.635
-6.635
-6.6275
-6.6225
-6.61875
-6.62125
-6.6175
-6.6125
-6.6125
-6.6175
-6.625
-6.63125
-6.6275
-6.62875
-6.64
-6.64625
-6.6125
-6.53625
-6.42375
-6.30125
-6.1825
-6.09125
-6.06125
-6.11125
-6.21875
-6.34625
-6.44875
-6.51
-6.54875
-6.5675
-6.585
-6.59625
-6.6025
-6.60875
-6.60875
-6.6125
-6.61375
-6.6125
-6.6125
-6.61
-6.61
-6.6025
-6.59375
-6.5825
-6.5825
-6.58625
-6.59125
-6.58875
-6.58875
-6.58625
-6.59125
-6.58375
-6.575
-6.56625
-6.565
-6.56375
-6.56
-6.55125
-6.5425
-6.53875
-6.54
-6.5425
-6.53375
-6.5275
-6.53125
-6.53625
-6.53625
-6.53125
-6.52875
-6.53
-6.53375
-6.53625
-6.53125
-6.53625
-6.54
-6.5475
-6.5475
-6.55125
-6.55125
-6.55875
-6.56125
-6.56375
-6.56125
-6.5625
-6.56125
-6.56625
-6.57
-6.56375
-6.56
-6.56375
-6.57375
-6.57875
-6.5725
-6.57625
-6.5875
-6.6
-6.60375
-6.59875
-6.59875
-6.6
-6.60125
-6.59625
-6.5925
-6.5925
-6.59625
-6.59875
-6.6025
-6.5975
-6.5975
-6.6025
-6.61375
-6.6175
-6.62
-6.62
-6.625
-6.62375
-6.62375
-6.62
-6.6175
-6.62
-6.62625
-6.62875
-6.62375
-6.625
-6.62875
-6.635
-6.63375
-6.63
-6.62875
-6.63125
-6.63125
-6.62375
-6.61875
-6.62
-6.6225
-6.62
-6.615
-6.61125
-6.6075
-6.61125
-6.61125
-6.61125
-6.59625
-6.5875
-6.5775
-6.5675
-6.55875
-6.5525
-6.5475
-6.54625
-6.55375
-6.55125
-6.55375
-6.56125
-6.57125
-6.57625
-6.58125
-6.58625
-6.58625
-6.59125
-6.59375
-6.5925
-6.5875
-6.585
-6.59125
-6.5925
-6.59625
-6.59125
-6.585
-6.58
-6.5825
-6.585
-6.56875
-6.52
-6.435
-6.315
-6.17875
-6.0475
-5.94875
-5.915
-5.96125
-6.06
-6.1775
-6.27625
-6.34625
-6.38875
-6.41625
-6.4275
-6.44
-6.45375
-6.465
-6.47125
-6.4725
-6.47125
-6.48125
-6.485
-6.485
-6.4825
-6.4825
-6.48875
-6.48625
-6.4825
-6.4725
-6.4725
-6.47125
-6.475
-6.4725
-6.465
-6.46
-6.45875
-6.45375
-6.44625
-6.4325
-6.42375
-6.4225
-6.41875
-6.41125
-6.40125
-6.3925
-6.38625
-6.38125
-6.3725
-6.35625
-6.345
-6.3425
-6.3425
-6.3425
-6.33625
-6.33375
-6.33125
-6.33125
-6.3325
-6.34125
-6.34625
-6.35875
-6.3625
-6.3675
-6.36375
-6.36875
-6.37375
-6.37625
-6.37875
-6.375
-6.37375
-6.37875
-6.38625
-6.39125
-6.39375
-6.39875
-6.4075
-6.4175
-6.42375
-6.42625
-6.42875
-6.4375
-6.44375
-6.44625
-6.44375
-6.44
-6.44375
-6.4475
-6.4475
-6.4425
-6.4425
-6.4425
-6.44625
-6.44625
-6.43875
-6.435
-6.4375
-6.43875
-6.44
-6.43375
-6.43125
-6.43125
-6.43375
-6.43125
-6.43
-6.4225
-6.42875
-6.43375
-6.435
-6.42875
-6.43125
-6.4325
-6.43125
-6.42375
-6.4225
-6.42125
-6.4225
-6.425
-6.42
-6.41375
-6.40875
-6.41625
-6.4175
-6.42125
-6.41625
-6.41875
-6.415
-6.4175
-6.41125
-6.3975
-6.38625
-6.38125
-6.3775
-6.375
-6.37625
-6.37375
-6.38125
-6.39
-6.3975
-6.4
-6.40375
-6.415
-6.43
-6.4375
-6.43625
-6.43875
-6.4425
-6.44375
-6.4425
-6.43625
-6.4375
-6.4425
-6.445
-6.4475
-6.4525
-6.455
-6.46625
-6.47625
-6.4825
-6.4775
-6.44625
-6.3725
-6.2575
-6.12
-5.98
-5.86875
-5.81125
-5.835
-5.92875
-6.055
-6.1775
-6.26875
-6.32875
-6.37
-6.4
-6.42875
-6.4575
-6.47875
-6.49
-6.49375
-6.4925
-6.49625
-6.495
-6.4925
-6.485
-6.485
-6.48125
-6.48125
-6.47625
-6.46625
-6.46125
-6.46625
-6.46875
-6.465
-6.4575
-6.45375
-6.45
-6.44375
-6.4375
-6.43125
-6.42625
-6.4275
-6.43125
-6.43
-6.4275
-6.41875
-6.41375
-6.395
-6.35875
-6.32375
-6.29875
-6.2775
-6.265
-6.2525
-6.245
-6.2375
-6.24
-6.24125
-6.24375
-6.2425
-6.24625
-6.25125
-6.255
-6.255
-6.2525
-6.255
-6.2625
-6.26875
-6.2675
-6.2625
-6.26125
-6.265
-6.26875
-6.2675
-6.27
-6.27375
-6.28375
-6.295
-6.30125
-6.30375
-6.3025
-6.30875
-6.31375
-6.31875
-6.31375
-6.31
-6.30875
-6.30875
-6.30375
-6.3
-6.29875
-6.3075
-6.3175
-6.3275
-6.32625
-6.33
-6.3325
-6.335
-6.335
-6.32875
-6.3325
-6.33875
-6.34
-6.335
-6.3275
-6.32375
-6.325
-6.325
-6.32375
-6.32
-6.3225
-6.33125
-6.3375
-6.335
-6.3325
-6.33
-6.3375
-6.34125
-6.34375
-6.34
-6.34
-6.34125
-6.345
-6.34375
-6.34375
-6.33625
-6.3375
-6.33875
-6.335
-6.3325
-6.33875
-6.3475
-6.3525
-6.34625
-6.33625
-6.32875
-6.33375
-6.33875
-6.34375
-6.3475
-6.35125
-6.3625
-6.3775
-6.38875
-6.3975
-6.4075
-6.415
-6.42125
-6.4175
-6.415
-6.40875
-6.41375
-6.41375
-6.4125
-6.40375
-6.40375
-6.405
-6.40375
-6.39875
-6.3875
-6.38125
-6.38125
-6.39375
-6.39875
-6.375
-6.3125
-6.21625
-6.0875
-5.9525
-5.82875
-5.74875
-5.7475
-5.82125
-5.94125
-6.06125
-6.15375
-6.22125
-6.26125
-6.28875
-6.30375
-6.31875
-6.33375
-6.3475
-6.35
-6.35125
-6.35375
-6.36125
-6.3625
-6.365
-6.3625
-6.3625
-6.365
-6.365
-6.35875
-6.35375
-6.34375
-6.3425
-6.33875
-6.3375
-6.3325
-6.33125
-6.3325
-6.335
-6.32875
-6.32
-6.315
-6.315
-6.31375
-6.30875
-6.30125
-6.29625
-6.30125
-6.2975
-6.2925
-6.28125
-6.28375
-6.285
-6.28375
-6.2825
-6.28
-6.275
-6.27625
-6.28
-6.27875
-6.27875
-6.2775
-6.28375
-6.29
-6.2875
-6.28375
-6.28125
-6.2825
-6.2825
-6.2825
-6.27625
-6.27625
-6.28
-6.2825
-6.2875
-6.29
-6.29625
-6.30375
-6.3175
-6.32
-6.3225
-6.3225
-6.3325
-6.33875
-6.34375
-6.34125
-6.3425
-6.3475
-6.35125
-6.35125
-6.345
-6.34
-6.33875
-6.34125
-6.34375
-6.3375
-6.33625
-6.335
-6.33625
-6.32875
-6.31875
-6.31125
-6.30875
-6.30875
-6.305
-6.30125
-6.3
-6.305
-6.30875
-6.3075
-6.29875
-6.3025
-6.29875
-6.30125
-6.29875
-6.2975
-6.2975
-6.30375
-6.3075
-6.305
-6.30125
-6.29875
-6.305
-6.31125
-6.31125
-6.3075
-6.30875
-6.31375
-6.315
-6.31625
-6.31375
-6.315
-6.31875
-6.3175
-6.31375
-6.3075
-6.3075
-6.3075
-6.30625
-6.30125
-6.3025
-6.29
-6.2925
-6.28875
-6.28125
-6.275
-6.27125
-6.2675
-6.2625
-6.255
-6.245
-6.23375
-6.23
-6.23
-6.22625
-6.22625
-6.235
-6.24625
-6.26
-6.26875
-6.2725
-6.27875
-6.28625
-6.2925
-6.29
-6.28625
-6.2825
-6.28875
-6.2875
-6.2875
-6.28
-6.27875
-6.28125
-6.2875
-6.28875
-6.2925
-6.2975
-6.2975
-6.26875
-6.19875
-6.0875
-5.95375
-5.825
-5.71625
-5.65125
-5.66875
-5.75375
-5.88
-6.005
-6.0925
-6.1475
-6.18625
-6.215
-6.2375
-6.24875
-6.2625
-6.27
-6.275
-6.28375
-6.2825
-6.28125
-6.28
-6.28625
-6.28875
-6.2875
-6.2825
-6.28375
-6.285
-6.285
-6.2825
-6.27375
-6.2675
-6.265
-6.25625
-6.2425
-6.2325
-6.22625
-6.22625
-6.23125
-6.22625
-6.22125
-6.215
-6.21375
-6.2125
-6.21
-6.20375
-6.195
-6.19
-6.18375
-6.1775
-6.17
-6.16125
-6.16
-6.16125
-6.15875
-6.15625
-6.14625
-6.14375
-6.13875
-6.1425
-6.14625
-6.14875
-6.15375
-6.15375
-6.15125
-6.14625
-6.14625
-6.15
-6.15
-6.14875
-6.14375
-6.14375
-6.14875
-6.1525
-6.1525
-6.155
-6.15875
-6.165
-6.17375
-6.1725
-6.175
-6.1775
-6.18625
-6.19
-6.1925
-6.1875
-6.18875
-6.1925
-6.19875
-6.19875
-6.19375
-6.19375
-6.19625
-6.1925
-6.1875
-6.18125
-6.17875
-6.18
-6.1775
-6.17375
-6.17125
-6.1725
-6.1775
-6.17875
-6.175
-6.16875
-6.1675
-6.1725
-6.185
-6.18625
-6.18
-6.18125
-6.185
-6.18875
-6.185
-6.19
-6.1925
-6.195
-6.19125
-6.19
-6.18625
-6.185
-6.19
-6.19375
-6.195
-6.19
-6.19125
-6.19375
-6.2025
-6.20125
-6.19625
-6.195
-6.19625
-6.19875
-6.19375
-6.19125
-6.19
-6.19
-6.19125
-6.19
-6.1875
-6.18625
-6.185
-6.185
-6.1875
-6.18625
-6.1925
-6.19625
-6.19625
-6.18875
-6.18375
-6.1825
-6.18625
-6.18125
-6.17125
-6.15875
-6.14875
-6.14625
-6.145
-6.1425
-6.14
-6.14125
-6.14375
-6.14625
-6.1525
-6.16
-6.17
-6.1825
-6.19375
-6.19375
-6.19375
-6.19875
-6.20125
-6.20625
-6.2025
-6.19625
-6.19375
-6.2
-6.2
-6.19875
-6.1925
-6.195
-6.2025
-6.215
-6.2125
-6.1775
-6.1025
-5.99625
-5.87125
-5.74
-5.6325
-5.57625
-5.60125
-5.69625
-5.82
-5.93125
-6.0125
-6.07625
-6.1175
-6.14125
-6.16
-6.17625
-6.19375
-6.205
-6.20875
-6.2075
-6.20875
-6.2125
-6.22
-6.21375
-6.21
-6.205
-6.20375
-6.2
-6.19375
-6.185
-6.185
-6.19
-6.19125
-6.18875
-6.18375
-6.18
-6.1775
-6.175
-6.16875
-6.16125
-6.16125
-6.1675
-6.16625
-6.16125
-6.1525
-6.15125
-6.1475
-6.14375
-6.1375
-6.13125
-6.12875
-6.13625
-6.14
-6.14
-6.13375
-6.13625
-6.14125
-6.14875
-6.15125
-6.15
-6.15375
-6.15875
-6.16125
-6.16
-6.155
-6.155
-6.16
-6.15625
-6.15
-6.1425
-6.1375
-6.14125
-6.14125
-6.14125
-6.14375
-6.145
-6.15125
-6.15
-6.14875
-6.1475
-6.1525
-6.15875
-6.17
-6.16875
-6.17375
-6.17875
-6.185
-6.18375
-6.18375
-6.1775
-6.1825
-6.18375
-6.1825
-6.18375
-6.18125
-6.17625
-6.17625
-6.17625
-6.175
-6.17375
-6.17125
-6.17125
-6.17
-6.16625
-6.16
-6.15875
-6.16875
-6.17125
-6.16625
-6.16375
-6.16625
-6.175
-6.18
-6.17875
-6.17375
-6.17375
-6.18
-6.1875
-6.18625
-6.185
-6.1875
-6.19
-6.19
-6.18875
-6.18875
-6.19375
-6.2025
-6.205
-6.20625
-6.20375
-6.2025
-6.21
-6.2125
-6.20875
-6.20125
-6.19375
-6.19
-6.18375
-6.1825
-6.1775
-6.1725
-6.1675
-6.16125
-6.14875
-6.13875
-6.13375
-6.13625
-6.13625
-6.1375
-6.13625
-6.145
-6.15625
-6.16125
-6.16375
-6.1625
-6.16375
-6.16625
-6.16375
-6.1575
-6.155
-6.1525
-6.15125
-6.15
-6.14125
-6.1375
-6.13625
-6.14
-6.1425
-6.14375
-6.1475
-6.135
-6.09375
-6.005
-5.88125
-5.74625
-5.62
-5.53
-5.51
-5.56
-5.67
-5.7975
-5.91125
-5.98125
-6.02625
-6.05375
-6.07625
-6.0975
-6.11375
-6.1225
-6.13125
-6.1375
-6.14375
-6.145
-6.14375
-6.13875
-6.1325
-6.1275
-6.12375
-6.11875
-6.11625
-6.1225
-6.13
-6.1325
-6.13
-6.12625
-6.1225
-6.125
-6.12625
-6.12875
-6.125
-6.12875
-6.13
-6.12875
-6.1225
-6.11875
-6.115
-6.11625
-6.11875
-6.11625
-6.1175
-6.1175
-6.1175
-6.1175
-6.1125
-6.11125
-6.11375
-6.11875
-6.1225
-6.1275
-6.13125
-6.1375
-6.1475
-6.15375
-6.16
-6.165
-6.1675
-6.175
-6.18375
-6.18
-6.18
-6.18
-6.18625
-6.18875
-6.1925
-6.19
-6.19125
-6.19625
-6.20375
-6.20375
-6.20625
-6.20875
-6.215
-6.215
-6.2075
-6.20125
-6.20125
-6.20625
-6.21375
-6.215
-6.21625
-6.21625
-6.2225
-6.2225
-6.215
-6.2075
-6.2025
-6.205
-6.2025
-6.2
-6.1925
-6.19125
-6.1875
-6.19
-6.1875
-6.18375
-6.18
-6.185
-6.185
-6.1825
-6.17875
-6.18
-6.1825
-6.1825
-6.18
-6.17125
-6.165
-6.16
-6.1575
-6.15
-6.14375
-6.1425
-6.14375
-6.1425
-6.14
-6.1325
-6.13125
-6.13125
-6.1325
-6.13
-6.13125
-6.1325
-6.13375
-6.13375
-6.13
-6.12625
-6.12625
-6.12375
-6.11875
-6.11375
-6.11125
-6.11375
-6.1175
-6.11375
-6.10375
-6.08875
-6.075
-6.0675
-6.06625
-6.065
-6.06625
-6.07125
-6.0775
-6.085
-6.09375
-6.105
-6.11375
-6.12875
-6.1325
-6.1325
-6.13
-6.13375
-6.1325
-6.13
-6.125
-6.1225
-6.1225
-6.12875
-6.13
-6.12875
-6.12625
-6.13125
-6.14375
-6.15125
-6.13375
-6.07375
-5.9775
-5.85375
-5.72125
-5.5975
-5.50875
-5.5
-5.57125
-5.69125
-5.815
-5.915
-5.98625
-6.03125
-6.06375
-6.08375
-6.10125
-6.11375
-6.13
-6.1325
-6.13375
-6.13125
-6.13125
-6.13
-6.12875
-6.12375
-6.11875
-6.11625
-6.115
-6.115
-6.10875
-6.09875
-6.0925
-6.0925
-6.08625
-6.07875
-6.07125
-6.06125
-6.0625
-6.06
-6.0575
-6.0525
-6.04625
-6.0475
-6.045
-6.03875
-6.03125
-6.0325
-6.03
-6.025
-6.01875
-6.0225
-6.0225
-6.02625
-6.02125
-6.01875
-6.01375
-6.01625
-6.02
-6.0275
-6.025
-6.02625
-6.0325
-6.0375
-6.045
-6.05
-6.05
-6.05125
-6.0525
-6.04875
-6.04375
-6.03875
-6.035
-6.0375
-6.03875
-6.03625
-6.03375
-6.03375
-6.03875
-6.04
-6.0425
-6.04125
-6.04625
-6.05125
-6.055
-6.05125
-6.04875
-6.0475
-6.0475
-6.04625
-6.04625
-6.045
-6.04375
-6.045
-6.045
-6.04125
-6.03625
-6.03625
-6.0425
-6.0425
-6.04
-6.03375
-6.0325
-6.03375
-6.0325
-6.025
-6.01875
-6.01875
-6.02
-6.02625
-6.02625
-6.02875
-6.03375
-6.04125
-6.04
-6.035
-6.0275
-6.025
-6.02625
-6.02875
-6.025
-6.0225
-6.02
-6.01875
-6.01875
-6.01125
-6.0075
-6.005
-6.00375
-6.00625
-6.00375
-5.99875
-5.995
-5.995
-5.99625
-5.9925
-5.99125
-5.99125
-5.99875
-5.99625
-5.9875
-5.98
-5.98375
-5.99
-5.99625
-5.995
-5.995
-5.99375
-5.99875
-6.00125
-6.0025
-5.99625
-5.99375
-5.99625
-5.99875
-5.99625
-5.9925
-5.99
-5.98375
-5.97
-5.9525
-5.93875
-5.9375
-5.94375
-5.945
-5.94625
-5.9475
-5.94875
-5.96125
-5.97625
-5.9875
-5.995
-5.99625
-6
-6
-6.005
-6.0025
-6.00875
-6.01375
-6.01875
-6.01625
-6.01375
-6.01125
-6.01375
-6.01375
-6.00625
-6.01
-6.02125
-6.0125
-5.96375
-5.86875
-5.7475
-5.61875
-5.50125
-5.42125
-5.4125
-5.47875
-5.5975
-5.72875
-5.83125
-5.8925
-5.925
-5.94625
-5.965
-5.98375
-5.995
-6.00625
-6.015
-6.025
-6.025
-6.0225
-6.01125
-6.01
-6.01
-6.0125
-6.0125
-6.01125
-6.01375
-6.0125
-6.01
-6.00625
-5.99875
-5.99125
-5.99125
-5.99125
-5.98375
-5.98375
-5.98125
-5.98125
-5.98
-5.97625
-5.9725
-5.96875
-5.96875
-5.96625
-5.9625
-5.95125
-5.94625
-5.94625
-5.9475
-5.9425
-5.9375
-5.9275
-5.93125
-5.935
-5.93375
-5.93375
-5.935
-5.9425
-5.9475
-5.94625
-5.94125
-5.94375
-5.94625
-5.9475
-5.94375
-5.94
-5.93875
-5.945
-5.94375
-5.94
-5.93875
-5.9425
-5.94625
-5.94625
-5.95125
-5.95625
-5.96125
-5.9725
-5.97875
-5.9825
-5.9825
-5.98875
-5.99625
-6.00375
-6.005
-6.0025
-6.005
-6.01
-6.0125
-6.00625
-6.00125
-5.99875
-6.00125
-5.99875
-5.99375
-5.99125
-5.99375
-5.99875
-5.99875
-5.995
-5.99125
-5.99125
-5.995
-5.99375
-5.9925
-5.985
-5.98625
-5.98875
-5.9925
-5.9925
-5.99375
-5.99125
-5.9975
-6
-6
-6
-5.99875
-5.99875
-6.0025
-6.005
-6.00375
-6.0075
-6.00875
-6.0025
-5.9975
-5.99375
-5.9925
-5.9925
-5.99125
-5.99
-5.99
-5.99375
-5.99875
-5.9975
-5.99375
-5.9925
-5.9925
-5.9975
-5.99125
-5.99
-5.97875
-5.9775
-5.98
-5.9825
-5.98
-5.98125
-5.98375
-5.985
-5.97875
-5.9675
-5.95375
-5.94625
-5.94625
-5.95125
-5.95
-5.95625
-5.96125
-5.97375
-5.985
-5.98875
-5.99125
-5.9925
-5.995
-5.995
-5.9925
-5.9875
-5.995
-6.00375
-6.01
-6.01
-6.005
-6.00375
-6.00625
-6.00625
-6.00125
-5.99625
-6.0075
-6.005
-5.9725
-5.89125
-5.775
-5.6475
-5.52625
-5.425
-5.38625
-5.42625
-5.52125
-5.645
-5.7525
-5.82
-5.8625
-5.89375
-5.915
-5.93
-5.9375
-5.945
-5.9475
-5.95375
-5.95
-5.94875
-5.94625
-5.94875
-5.95
-5.95125
-5.945
-5.93875
-5.93375
-5.93875
-5.935
-5.92625
-5.91625
-5.91375
-5.92
-5.92
-5.9175
-5.91375
-5.9125
-5.91625
-5.91375
-5.9075
-5.89875
-5.8975
-5.89625
-5.9
-5.89625
-5.88875
-5.88875
-5.88625
-5.885
-5.8775
-5.87375
-5.8725
-5.8775
-5.87875
-5.88
-5.87875
-5.885
-5.89
-5.895
-5.89375
-5.89375
-5.89625
-5.9
-5.90125
-5.89625
-5.8925
-5.8925
-5.8925
-5.88875
-5.88375
-5.885
-5.89125
-5.89625
-5.9025
-5.90375
-5.905
-5.91125
-5.925
-5.93375
-5.93875
-5.9425
-5.9525
-5.9625
-5.96625
-5.96625
-5.97125
-5.97125
-5.9775
-5.98
-5.9825
-5.98125
-5.98375
-5.985
-5.985
-5.985
-5.985
-5.98375
-5.9875
-5.99
-5.985
-5.97625
-5.9725
-5.9725
-5.9725
-5.96625
-5.96875
-5.97125
-5.975
-5.97875
-5.97625
-5.9775
-5.9775
-5.98375
-5.985
-5.9875
-5.98375
-5.99
-5.99875
-6.00375
-6.00125
-6.00375
-6.0025
-6.00375
-6.00875
-6.0125
-6.01875
-6.0275
-6.03625
-6.04125
-6.04
-6.03625
-6.0375
-6.0425
-6.045
-6.04125
-6.0375
-6.0375
-6.04
-6.04125
-6.04125
-6.03625
-6.03875
-6.03875
-6.04
-6.0375
-6.04125
-6.0425
-6.0475
-6.04875
-6.05
-6.04625
-6.04625
-6.04625
-6.0425
-6.03625
-6.03
-6.03125
-6.03375
-6.0325
-6.02375
-6.015
-6.01
-6
-5.99125
-5.98375
-5.9825
-5.9875
-5.99375
-6
-6.00125
-6.00375
-6.01375
-6.02625
-6.0325
-6.0375
-6.03375
-6.03375
-6.035
-6.03625
-6.03125
-6.0325
-6.03
-6.03375
-6.0325
-6.0275
-6.025
-6.02375
-6.035
-6.0475
-6.04875
-6.02375
-5.96
-5.8625
-5.7375
-5.6
-5.47875
-5.39875
-5.39375
-5.46125
-5.57625
-5.7
-5.8025
-5.87625
-5.9225
-5.95
-5.97
-5.98625
-6.00875
-6.02125
-6.0275
-6.02375
-6.0275
-6.0325
-6.03375
-6.0275
-6.02
-6.02
-6.0275
-6.025
-6.015
-6.00875
-6.01
-6.01125
-6.00875
-6
-5.995
-5.98875
-5.98625
-5.97875
-5.97
-5.96375
-5.9625
-5.96625
-5.96375
-5.95625
-5.945
-5.94375
-5.94
-5.9375
-5.92625
-5.91875
-5.91125
-5.91375
-5.91125
-5.91125
-5.90375
-5.90125
-5.89875
-5.8975
-5.89125
-5.88375
-5.88375
-5.88625
-5.88625
-5.88
-5.87625
-5.8775
-5.88125
-5.8825
-5.8825
-5.88
-5.87625
-5.875
-5.86625
-5.8475
-5.8275
-5.8125
-5.8025
-5.7925
-5.79125
-5.79125
-5.8
-5.80125
-5.805
-5.8025
-5.7975
-5.79375
-5.7925
-5.78625
-5.775
-5.76125
-5.75125
-5.74375
-5.74125
-5.73125
-5.72375
-5.71875
-5.71375
-5.71
-5.70625
-5.70125
-5.70125
-5.70125
-5.69875
-5.6925
-5.6875
-5.68875
-5.6925
-5.69875
-5.69125
-5.68625
-5.6875
-5.69125
-5.69
-5.6875
-5.6825
-5.68375
-5.6875
-5.6925
-5.69125
-5.68875
-5.68875
-5.6925
-5.695
-5.6975
-5.70125
-5.70375
-5.71125
-5.71375
-5.7125
-5.715
-5.72125
-5.7275
-5.73375
-5.735
-5.73375
-5.73375
-5.73875
-5.73625
-5.7325
-5.7275
-5.73
-5.7325
-5.7325
-5.7275
-5.7225
-5.7275
-5.72875
-5.73125
-5.72625
-5.72125
-5.7225
-5.7275
-5.72875
-5.7275
-5.72375
-5.7275
-5.73125
-5.73125
-5.72625
-5.72375
-5.72
-5.72
-5.72
-5.71625
-5.70875
-5.70875
-5.70625
-5.71
-5.7075
-5.70625
-5.7075
-5.71
-5.7125
-5.71375
-5.70875
-5.70875
-5.70375
-5.70375
-5.6925
-5.68625
-5.685
-5.69
-5.68875
-5.68625
-5.69
-5.6975
-5.71
-5.7225
-5.72875
-5.73125
-5.7375
-5.75125
-5.75625
-5.75125
-5.7475
-5.7475
-5.75625
-5.7575
-5.7575
-5.75375
-5.75875
-5.76
-5.765
-5.765
-5.76875
-5.75625
-5.71
-5.6125
-5.48875
-5.355
-5.23
-5.14
-5.11125
-5.15625
-5.26375
-5.4
-5.52
-5.60375
-5.65875
-5.6925
-5.7225
-5.75
-5.77375
-5.78625
-5.79375
-5.7975
-5.8075
-5.815
-5.81375
-5.81875
-5.81875
-5.82375
-5.82125
-5.8175
-5.81375
-5.81625
-5.815
-5.8175
-5.815
-5.8125
-5.815
-5.81625
-5.82125
-5.82375
-5.83
-5.8325
-5.8375
-5.8425
-5.83875
-5.84
-5.8425
-5.8475
-5.8475
-5.84375
-5.8425
-5.84125
-5.8425
-5.8425
-5.83875
-5.83375
-5.83625
-5.835
-5.83875
-5.83625
-5.83875
-5.84125
-5.84875
-5.85375
-5.8625
-5.865
-5.8725
-5.88375
-5.88625
-5.88625
-5.885
-5.88875
-5.89625
-5.90125
-5.9025
-5.90625
-5.91375
-5.92125
-5.92875
-5.93
-5.93125
-5.9425
-5.95125
-5.95625
-5.95875
-5.95875
-5.96125
-5.96875
-5.975
-5.97625
-5.97625
-5.9825
-5.98375
-5.98625
-5.98
-5.975
-5.9725
-5.9725
-5.96875
-5.96375
-5.9575
-5.95375
-5.95625
-5.9525
-5.9475
-5.94375
-5.94
-5.93875
-5.93875
-5.93375
-5.92875
-5.93
-5.93625
-5.93875
-5.94
-5.94
-5.9475
-5.95
-5.9525
-5.94875
-5.94875
-5.95
-5.955
-5.95625
-5.955
-5.94875
-5.95
-5.95125
-5.94625
-5.93875
-5.9325
-5.93
-5.93125
-5.93375
-5.93375
-5.93125
-5.93125
-5.93
-5.92875
-5.92625
-5.9275
-5.9325
-5.93875
-5.93875
-5.935
-5.93375
-5.935
-5.93875
-5.93625
-5.93625
-5.93625
-5.93875
-5.94125
-5.945
-5.94
-5.9375
-5.945
-5.96
-5.96875
-5.97625
-5.97875
-5.98125
-5.9875
-5.99
-5.98625
-5.9775
-5.97375
-5.9725
-5.97
-5.96875
-5.96625
-5.965
-5.965
-5.96125
-5.95125
-5.93875
-5.93375
-5.935
-5.9325
-5.92625
-5.9125
-5.9
-5.8925
-5.885
-5.8725
-5.8675
-5.87
-5.87
-5.87125
-5.8725
-5.8775
-5.89
-5.905
-5.91375
-5.915
-5.91625
-5.91875
-5.9225
-5.92375
-5.91625
-5.91125
-5.90875
-5.91
-5.91
-5.91
-5.9025
-5.9025
-5.9075
-5.91625
-5.91375
-5.885
-5.8225
-5.7175
-5.5925
-5.46
-5.35
-5.295
-5.32
-5.4075
-5.53125
-5.645
-5.72375
-5.7725
-5.8025
-5.82125
-5.83375
-5.845
-5.8625
-5.8725
-5.87375
-5.87375
-5.8775
-5.87875
-5.8725
-5.86375
-5.85875
-5.8625
-5.87
-5.8725
-5.86875
-5.8675
-5.86625
-5.87
-5.86875
-5.865
-5.85875
-5.86
-5.8625
-5.86625
-5.86125
-5.855
-5.85
-5.8525
-5.85625
-5.855
-5.85625
-5.855
-5.8625
-5.86
-5.85625
-5.85375
-5.84875
-5.84625
-5.84
-5.835
-5.83125
-5.82625
-5.82875
-5.83
-5.82625
-5.82125
-5.825
-5.82875
-5.83875
-5.8425
-5.84375
-5.845
-5.8525
-5.855
-5.8525
-5.8475
-5.845
-5.845
-5.8425
-5.8325
-5.835
-5.83625
-5.84
-5.84125
-5.85375
-5.88125
-5.91
-5.93625
-5.95125
-5.9575
-5.965
-5.975
-5.98375
-5.9925
-5.99625
-5.9975
-5.9975
-6
-5.99875
-5.995
-5.99
-5.9875
-5.9875
-5.99
-5.9825
-5.9825
-5.98125
-5.98375
-5.9825
-5.97875
-5.96875
-5.96625
-5.97375
-5.98
-5.97875
-5.97
-5.9675
-5.97375
-5.975
-5.97
-5.96125
-5.95875
-5.95625
-5.95
-5.94125
-5.9375
-5.93625
-5.9375
-5.9375
-5.92875
-5.9225
-5.92
-5.9225
-5.91625
-5.9125
-5.9075
-5.9075
-5.905
-5.905
-5.89625
-5.89375
-5.89375
-5.89125
-5.88875
-5.8825
-5.87875
-5.88625
-5.8975
-5.90125
-5.89875
-5.8925
-5.88875
-5.88875
-5.88625
-5.8825
-5.88
-5.8775
-5.88
-5.88
-5.87875
-5.8725
-5.8675
-5.8625
-5.85875
-5.84625
-5.835
-5.82625
-5.8225
-5.8175
-5.815
-5.8125
-5.81625
-5.82375
-5.83
-5.8375
-5.84375
-5.84875
-5.855
-5.8575
-5.85375
-5.84875
-5.85375
-5.8575
-5.86125
-5.855
-5.84875
-5.84375
-5.8425
-5.845
-5.8425
-5.84875
-5.8525
-5.8525
-5.82
-5.74875
-5.6375
-5.51875
-5.40125
-5.30625
-5.26
-5.295
-5.3925
-5.525
-5.635
-5.70625
-5.75
-5.78
-5.80625
-5.82125
-5.83375
-5.84875
-5.86375
-5.87
-5.8725
-5.87
-5.865
-5.86875
-5.87375
-5.87625
-5.8725
-5.86625
-5.86625
-5.86
-5.85375
-5.85
-5.84875
-5.84375
-5.84375
-5.84125
-5.8325
-5.8225
-5.8175
-5.8125
-5.80875
-5.80125
-5.79125
-5.785
-5.78
-5.77375
-5.765
-5.755
-5.7475
-5.74375
-5.73875
-5.73125
-5.72375
-5.72
-5.72
-5.71625
-5.71125
-5.70875
-5.7075
-5.715
-5.7175
-5.71875
-5.72
-5.72375
-5.7325
-5.7375
-5.7375
-5.7375
-5.7375
-5.74125
-5.7425
-5.74125
-5.7425
-5.74875
-5.7525
-5.7625
-5.76625
-5.7725
-5.77375
-5.78
-5.785
-5.78875
-5.79375
-5.80375
-5.8125
-5.81375
-5.805
-5.7925
-5.78375
-5.78
-5.7775
-5.7725
-5.76875
-5.76875
-5.775
-5.77625
-5.77625
-5.77625
-5.78
-5.78625
-5.78875
-5.785
-5.78625
-5.79125
-5.795
-5.79625
-5.79375
-5.7925
-5.79375
-5.8
-5.7975
-5.7925
-5.79
-5.795
-5.8
-5.80125
-5.8
-5.8
-5.80125
-5.80375
-5.80875
-5.805
-5.8025
-5.80375
-5.8025
-5.805
-5.8025
-5.805
-5.80625
-5.81375
-5.815
-5.8175
-5.81875
-5.8225
-5.825
-5.8275
-5.825
-5.82125
-5.82375
-5.825
-5.82375
-5.8175
-5.81125
-5.81375
-5.81625
-5.81875
-5.81375
-5.81375
-5.815
-5.815
-5.81125
-5.8075
-5.7975
-5.79
-5.7875
-5.78125
-5.7775
-5.775
-5.775
-5.7725
-5.7675
-5.75375
-5.745
-5.73875
-5.7375
-5.7375
-5.73625
-5.74125
-5.75
-5.7575
-5.76625
-5.77125
-5.775
-5.7775
-5.77625
-5.7725
-5.77125
-5.7675
-5.76625
-5.765
-5.76375
-5.76
-5.7575
-5.76
-5.75625
-5.75625
-5.75125
-5.75625
-5.75625
-5.7375
-5.67625
-5.57125
-5.4425
-5.315
-5.20625
-5.12125
-5.1025
-5.165
-5.28625
-5.41875
-5.52375
-5.5925
-5.64
-5.68
-5.71
-5.73375
-5.74625
-5.75625
-5.76625
-5.7775
-5.785
-5.78375
-5.78125
-5.7775
-5.78
-5.77625
-5.77625
-5.77
-5.765
-5.76125
-5.7575
-5.75
-5.7525
-5.7525
-5.7575
-5.7525
-5.74625
-5.73875
-5.73625
-5.73875
-5.735
-5.73375
-5.72625
-5.72375
-5.72625
-5.72125
-5.71
-5.705
-5.70375
-5.70125
-5.69625
-5.6875
-5.67875
-5.67625
-5.67375
-5.67125
-5.665
-5.66375
-5.665
-5.66875
-5.67
-5.66875
-5.6675
-5.67375
-5.6775
-5.68125
-5.68125
-5.6875
-5.69
-5.69625
-5.6975
-5.695
-5.69375
-5.69375
-5.7
-5.70375
-5.7075
-5.70625
-5.71125
-5.71875
-5.725
-5.72875
-5.73375
-5.735
-5.74125
-5.745
-5.7425
-5.73875
-5.74125
-5.74375
-5.74625
-5.74375
-5.74
-5.73875
-5.745
-5.745
-5.74
-5.73875
-5.7425
-5.74625
-5.74625
-5.74125
-5.73625
-5.7375
-5.73875
-5.73875
-5.72875
-5.7275
-5.72875
-5.72875
-5.725
-5.72375
-5.72375
-5.72625
-5.73
-5.7325
-5.73
-5.73375
-5.73625
-5.74125
-5.74
-5.735
-5.7275
-5.72875
-5.735
-5.7325
-5.72875
-5.72625
-5.7225
-5.7225
-5.72375
-5.7225
-5.7275
-5.72875
-5.73625
-5.7375
-5.7375
-5.73625
-5.73875
-5.74375
-5.74375
-5.74
-5.73625
-5.73625
-5.73875
-5.7425
-5.7425
-5.74125
-5.7425
-5.7425
-5.73875
-5.7275
-5.72375
-5.72875
-5.7325
-5.73
-5.73375
-5.7725
-5.83
-5.87375
-5.9075
-5.9225
-5.9325
-5.9425
-5.945
-5.94125
-5.93125
-5.9175
-5.91
-5.905
-5.8975
-5.885
-5.88375
-5.88875
-5.8975
-5.905
-5.9125
-5.9225
-5.93375
-5.9475
-5.945
-5.93875
-5.93375
-5.92875
-5.93
-5.92875
-5.9225
-5.92125
-5.91875
-5.92375
-5.925
-5.9275
-5.93125
-5.94
-5.93375
-5.88875
-5.79125
-5.665
-5.53
-5.4075
-5.3025
-5.25375
-5.28375
-5.38125
-5.51
-5.63125
-5.71625
-5.77125
-5.81
-5.835
-5.855
-5.86875
-5.88125
-5.89125
-5.9025
-5.90875
-5.90625
-5.9025
-5.90625
-5.90375
-5.90125
-5.89
-5.88125
-5.8725
-5.8675
-5.86125
-5.8575
-5.8525
-5.85
-5.84875
-5.83875
-5.82875
-5.82
-5.81375
-5.8125
-5.8125
-5.805
-5.79875
-5.795
-5.7925
-5.79
-5.78375
-5.77375
-5.77
-5.77125
-5.77
-5.7625
-5.755
-5.75
-5.755
-5.75125
-5.74875
-5.74
-5.74
-5.74
-5.7375
-5.73125
-5.73125
-5.73375
-5.73625
-5.73875
-5.74625
-5.745
-5.745
-5.7425
-5.735
-5.725
-5.7175
-5.7175
-5.71875
-5.72125
-5.72125
-5.72
-5.725
-5.73625
-5.7425
-5.74625
-5.74875
-5.7525
-5.75625
-5.76125
-5.7575
-5.76125
-5.76125
-5.76875
-5.77125
-5.77375
-5.7725
-5.77375
-5.7775
-5.78
-5.77625
-5.77625
-5.7775
-5.77875
-5.77875
-5.77875
-5.77375
-5.775
-5.775
-5.775
-5.7675
-5.7625
-5.76875
-5.77125
-5.77125
-5.765
-5.76625
-5.7675
-5.76875
-5.77
-5.77125
-5.76625
-5.76875
-5.77
-5.77125
-5.76625
-5.765
-5.765
-5.76875
-5.7675
-5.7625
-5.75625
-5.75125
-5.75625
-5.76125
-5.75875
-5.76
-5.76125
-5.7625
-5.76125
-5.75375
-5.7475
-5.74375
-5.7375
-5.73375
-5.73
-5.7275
-5.73375
-5.7425
-5.74625
-5.73875
-5.73375
-5.73
-5.73125
-5.735
-5.73625
-5.735
-5.73625
-5.73625
-5.73125
-5.72875
-5.72125
-5.72
-5.7225
-5.71875
-5.71
-5.70625
-5.7075
-5.71
-5.70625
-5.69875
-5.6875
-5.6775
-5.675
-5.66625
-5.6575
-5.6575
-5.65875
-5.66375
-5.67
-5.675
-5.67625
-5.6875
-5.6975
-5.70625
-5.70625
-5.71
-5.7125
-5.715
-5.71
-5.70625
-5.70625
-5.705
-5.7125
-5.71375
-5.715
-5.71375
-5.715
-5.71875
-5.72125
-5.72625
-5.7125
-5.66375
-5.5775
-5.45625
-5.325
-5.20875
-5.14
-5.13375
-5.1975
-5.3075
-5.435
-5.535
-5.6
-5.63375
-5.64875
-5.66125
-5.67625
-5.69375
-5.7075
-5.7175
-5.72
-5.72125
-5.72
-5.72125
-5.7175
-5.7125
-5.71
-5.71625
-5.7175
-5.71375
-5.71375
-5.71625
-5.72
-5.715
-5.70875
-5.70875
-5.70875
-5.715
-5.7225
-5.725
-5.72125
-5.72
-5.715
-5.7125
-5.7
-5.6925
-5.68375
-5.6825
-5.6775
-5.67375
-5.67
-5.6675
-5.6675
-5.66625
-5.65875
-5.65
-5.64875
-5.65375
-5.6525
-5.6525
-5.6525
-5.6575
-5.66375
-5.665
-5.655
-5.6475
-5.655
-5.665
-5.66625
-5.6625
-5.66125
-5.65625
-5.66375
-5.6625
-5.66
-5.66
-5.67125
-5.67625
-5.68125
-5.68625
-5.68875
-5.69125
-5.70375
-5.715
-5.72
-5.72
-5.7175
-5.715
-5.715
-5.71625
-5.7175
-5.72125
-5.7225
-5.72375
-5.72
-5.70875
-5.7025
-5.70125
-5.695
-5.69375
-5.6925
-5.69625
-5.695
-5.69
-5.68
-5.67125
-5.6675
-5.66875
-5.665
-5.66375
-5.665
-5.67
-5.67375
-5.67375
-5.66875
-5.665
-5.65875
-5.66375
-5.66625
-5.6675
-5.6675
-5.67375
-5.67875
-5.68
-5.675
-5.6725
-5.67625
-5.6775
-5.67375
-5.6625
-5.65375
-5.65
-5.65125
-5.65
-5.65125
-5.65
-5.6575
-5.6625
-5.66625
-5.66125
-5.66
-5.665
-5.6675
-5.665
-5.6575
-5.65375
-5.65125
-5.65375
-5.65625
-5.64875
-5.64125
-5.63625
-5.62875
-5.61625
-5.605
-5.60625
-5.61375
-5.625
-5.6375
-5.64625
-5.65625
-5.67375
-5.6875
-5.7
-5.7
-5.7
-5.7
-5.7025
-5.69875
-5.6975
-5.69375
-5.69625
-5.69875
-5.7025
-5.7
-5.70125
-5.70625
-5.70625
-5.7125
-5.70875
-5.69125
-5.64
-5.54375
-5.42125
-5.29
-5.1725
-5.095
-5.0975
-5.17
-5.28625
-5.40625
-5.50125
-5.56
-5.59625
-5.62375
-5.63875
-5.65375
-5.66625
-5.67375
-5.67875
-5.67875
-5.68125
-5.6875
-5.685
-5.6825
-5.67625
-5.6775
-5.68375
-5.6875
-5.67875
-5.67125
-5.6675
-5.66875
-5.66875
-5.66
-5.65125
-5.6525
-5.655
-5.65125
-5.64
-5.63
-5.62625
-5.61875
-5.61125
-5.60625
-5.60125
-5.6
-5.6
-5.59125
-5.58375
-5.5725
-5.5675
-5.56125
-5.5575
-5.55
-5.55
-5.5525
-5.5575
-5.56125
-5.56375
-5.57
-5.57875
-5.5875
-5.59375
-5.59625
-5.6025
-5.61125
-5.61375
-5.6125
-5.6075
-5.60125
-5.60125
-5.60375
-5.6025
-5.60125
-5.6
-5.60875
-5.61875
-5.62875
-5.6325
-5.6375
-5.6425
-5.655
-5.65875
-5.6625
-5.6675
-5.67125
-5.675
-5.67375
-5.6675
-5.6675
-5.6675
-5.67
-5.67125
-5.665
-5.66125
-5.665
-5.665
-5.65625
-5.64375
-5.64
-5.63875
-5.63875
-5.6375
-5.635
-5.63375
-5.6325
-5.6375
-5.6375
-5.63375
-5.6275
-5.63
-5.63125
-5.63125
-5.625
-5.62375
-5.625
-5.62875
-5.635
-5.635
-5.63375
-5.63625
-5.64375
-5.6475
-5.65
-5.6475
-5.64875
-5.66125
-5.66875
-5.66375
-5.66125
-5.66125
-5.6625
-5.66
-5.65625
-5.65375
-5.65625
-5.6525
-5.64875
-5.645
-5.64375
-5.64125
-5.645
-5.64625
-5.6425
-5.63625
-5.6375
-5.6425
-5.64375
-5.64125
-5.635
-5.63
-5.62625
-5.6225
-5.61125
-5.6025
-5.59875
-5.59875
-5.60125
-5.605
-5.60875
-5.615
-5.62375
-5.63375
-5.635
-5.63375
-5.6375
-5.64
-5.63625
-5.635
-5.6275
-5.62375
-5.6225
-5.62375
-5.61875
-5.62
-5.61875
-5.62
-5.6225
-5.62625
-5.6275
-5.6175
-5.57125
-5.47875
-5.355
-5.2175
-5.09625
-5.01375
-4.985
-5.03
-5.14
-5.27625
-5.39625
-5.47875
-5.52875
-5.55875
-5.58625
-5.60875
-5.62375
-5.62875
-5.64
-5.645
-5.65625
-5.655
-5.6575
-5.65625
-5.65625
-5.655
-5.65
-5.64125
-5.6375
-5.63625
-5.6325
-5.63125
-5.625
-5.62125
-5.6225
-5.62375
-5.62125
-5.60875
-5.6025
-5.6025
-5.6025
-5.6
-5.59
-5.58375
-5.58125
-5.57875
-5.575
-5.57125
-5.56375
-5.5625
-5.56125
-5.56
-5.55375
-5.54875
-5.54375
-5.545
-5.545
-5.54125
-5.53625
-5.5375
-5.535
-5.54
-5.54125
-5.54125
-5.55
-5.55625
-5.55875
-5.5575
-5.55375
-5.5525
-5.555
-5.5525
-5.54875
-5.5475
-5.55
-5.5525
-5.55875
-5.5575
-5.55875
-5.565
-5.575
-5.5775
-5.5775
-5.58125
-5.5875
-5.59
-5.59375
-5.5875
-5.5875
-5.58875
-5.595
-5.6
-5.5925
-5.58625
-5.58625
-5.59
-5.59
-5.585
-5.58
-5.575
-5.5775
-5.57875
-5.57875
-5.5775
-5.58
-5.58125
-5.58
-5.57875
-5.575
-5.57625
-5.58125
-5.5825
-5.57875
-5.58
-5.585
-5.59625
-5.59875
-5.59875
-5.5925
-5.59625
-5.5975
-5.60125
-5.6
-5.59875
-5.6025
-5.605
-5.60625
-5.60375
-5.60375
-5.605
-5.60625
-5.61
-5.61375
-5.6125
-5.61375
-5.61375
-5.61
-5.605
-5.6025
-5.60625
-5.61125
-5.61125
-5.61
-5.60875
-5.6125
-5.6125
-5.61375
-5.6125
-5.61125
-5.60625
-5.6125
-5.61875
-5.61625
-5.61125
-5.61125
-5.6125
-5.615
-5.61375
-5.61125
-5.61125
-5.61125
-5.605
-5.59625
-5.585
-5.58
-5.58125
-5.5825
-5.58125
-5.58
-5.58875
-5.59875
-5.605
-5.61
-5.62
-5.62625
-5.63375
-5.63625
-5.63375
-5.63125
-5.63625
-5.64
-5.64
-5.635
-5.6325
-5.63
-5.63625
-5.6375
-5.6325
-5.62875
-5.63625
-5.64875
-5.64
-5.5975
-5.51375
-5.39875
-5.27
-5.1425
-5.02875
-4.965
-4.9875
-5.0875
-5.22125
-5.345
-5.44125
-5.5025
-5.54375
-5.57
-5.58625
-5.6
-5.6125
-5.61875
-5.62125
-5.62625
-5.62875
-5.63125
-5.63375
-5.63
-5.6275
-5.6225
-5.61875
-5.61625
-5.61125
-5.60625
-5.6
-5.595
-5.5925
-5.585
-5.5825
-5.575
-5.5725
-5.575
-5.57375
-5.5625
-5.55625
-5.5525
-5.5525
-5.54625
-5.54375
-5.53625
-5.535
-5.5375
-5.535
-5.52875
-5.52375
-5.515
-5.51875
-5.52
-5.5225
-5.51625
-5.5075
-5.51
-5.51375
-5.51375
-5.515
-5.5175
-5.52875
-5.53125
-5.53375
-5.5375
-5.54375
-5.54875
-5.5475
-5.54
-5.535
-5.53875
-5.54
-5.5425
-5.54
-5.54375
-5.54875
-5.56
-5.565
-5.56625
-5.57125
-5.575
-5.5775
-5.5825
-5.58375
-5.57625
-5.56875
-5.57375
-5.575
-5.56625
-5.55875
-5.55875
-5.56
-5.55625
-5.54875
-5.54375
-5.54
-5.54125
-5.53875
-5.53375
-5.52875
-5.525
-5.5275
-5.5275
-5.5275
-5.53
-5.5325
-5.51875
-5.51375
-5.50125
-5.4925
-5.4875
-5.4925
-5.4975
-5.49875
-5.49375
-5.485
-5.49
-5.4925
-5.49125
-5.485
-5.48
-5.4775
-5.47625
-5.4775
-5.4825
-5.48375
-5.4825
-5.48125
-5.475
-5.46875
-5.47
-5.475
-5.4775
-5.4675
-5.45875
-5.4675
-5.48
-5.46875
-5.45
-5.42625
-5.41875
-5.4175
-5.4175
-5.4125
-5.405
-5.4
-5.395
-5.39
-5.39375
-5.39875
-5.3875
-5.3825
-5.37875
-5.36375
-5.34375
-5.33375
-5.33125
-5.3225
-5.31
-5.30375
-5.30875
-5.32625
-5.345
-5.35625
-5.35875
-5.37
-5.3775
-5.37625
-5.36625
-5.36125
-5.36125
-5.36375
-5.36
-5.3575
-5.35375
-5.35
-5.35125
-5.34875
-5.3425
-5.3475
-5.35875
-5.36
-5.3325
-5.2625
-5.15875
-5.05125
-4.935
-4.83125
-4.77375
-4.7925
-4.87625
-5.00125
-5.12125
-5.20125
-5.25
-5.28
-5.2925
-5.3025
-5.31125
-5.315
-5.33
-5.34
-5.34
-5.3325
-5.33125
-5.33875
-5.34375
-5.34875
-5.33875
-5.32125
-5.32125
-5.325
-5.31875
-5.32125
-5.31625
-5.3075
-5.31125
-5.31375
-5.305
-5.30625
-5.31375
-5.33
-5.33625
-5.32375
-5.305
-5.3025
-5.29375
-5.2825
-5.275
-5.27625
-5.27625
-5.28
-5.27875
-5.275
-5.27125
-5.27375
-5.2825
-5.2875
-5.26625
-5.24
-5.23375
-5.23875
-5.24
-5.24375
-5.2425
-5.24125
-5.245
-5.24625
-5.23875
-5.2375
-5.23875
-5.2475
-5.25875
-5.2575
-5.2525
-5.255
-5.2675
-5.275
-5.28
-5.27625
-5.275
-5.27875
-5.28625
-5.285
-5.295
-5.31
-5.325
-5.3175
-5.30375
-5.3
-5.305
-5.31125
-5.315
-5.32875
-5.33125
-5.3375
-5.34625
-5.35625
-5.36125
-5.345
-5.325
-5.31625
-5.31
-5.30625
-5.29125
-5.29125
-5.30625
-5.31
-5.29
-5.27125
-5.2575
-5.25625
-5.2575
-5.255
-5.23875
-5.24125
-5.24375
-5.2375
-5.23
-5.21625
-5.21875
-5.2225
-5.21375
-5.21125
-5.205
-5.205
-5.20625
-5.20125
-5.19875
-5.20125
-5.21125
-5.20625
-5.175
-5.155
-5.16375
-5.1875
-5.22
-5.23375
-5.2275
-5.205
-5.19125
-5.18875
-5.19125
-5.1775
-5.17125
-5.16625
-5.1525
-5.14875
-5.14125
-5.13875
-5.12625
-5.105
-5.09
-5.09125
-5.09375
-5.1025
-5.115
-5.115
-5.10625
-5.09
-5.0775
-5.04625
-5.0325
-5.025
-5.0075
-5.00625
-5.03125
-5.0275
-5.01625
-5.0175
-5.0225
-5.02875
-5.02
-5.015
-5.0075
-4.985
-4.93125
-4.83875
-4.735
-4.63375
-4.555
-4.5025
-4.49125
-4.5275
-4.64125
-4.76375
-4.85
-4.895
-4.9175
-4.9325
-4.95125
-4.975
-4.9925
-5
-4.9975
-5.00875
-5.02125
-5.0225
-5.025
-5.0325
-5.035
-5.04125
-5.0375
-5.03375
-5.025
-5.02375
-5.03375
-5.02875
-5.015
-5.0025
-5.01
-5.0125
-4.99375
-4.9775
-4.97125
-4.99125
-4.99875
-5
-4.995
-4.99
-4.9875
-4.9875
-4.9875
-4.98875
-4.9875
-4.97125
-4.96375
-4.96
-4.97375
-4.98
-4.98
-4.975
-4.9675
-4.965
-4.9525
-4.945
-4.94375
-4.9525
-4.97125
-4.9775
-4.975
-4.98375
-4.99625
-4.99875
-5.00125
-4.99875
-4.99875
-5
-4.99625
-5.0025
-5.00875
-5.01375
-5.02375
-5.03125
-5.035
-5.03875
-5.03875
-5.03625
-5.045
-5.0575
-5.0675
-5.0775
-5.0875
-5.0825
-5.07375
-5.07125
-5.07625
-5.08625
-5.08875
-5.085
-5.09
-5.09125
-5.0925
-5.0875
-5.08
-5.0875
-5.1
-5.1025
-5.1025
-5.1075
-5.11625
-5.12375
-5.1225
-5.12375
-5.14
-5.15
-5.1625
-5.17375
-5.17125
-5.175
-5.185
-5.19375
-5.19375
-5.19375
-5.18875
-5.18625
-5.18875
-5.19875
-5.19875
-5.2
-5.19875
-5.19875
-5.2025
-5.1975
-5.19625
-5.205
-5.215
-5.21125
-5.2075
-5.2075
-5.20875
-5.21125
-5.215
-5.21875
-5.2125
-5.20375
-5.20875
-5.2075
-5.205
-5.2075
-5.2125
-5.21375
-5.21375
-5.215
-5.23125
-5.24
-5.2525
-5.2625
-5.27
-5.27
-5.2675
-5.26625
-5.27875
-5.28625
-5.29125
-5.2875
-5.29125
-5.28875
-5.28125
-5.27375
-5.27625
-5.2875
-5.29875
-5.30625
-5.30625
-5.28625
-5.23
-5.1425
-5.035
-4.925
-4.82875
-4.7825
-4.81125
-4.9075
-5.035
-5.1575
-5.2525
-5.31375
-5.35
-5.38
-5.40125
-5.42875
-5.4475
-5.4625
-5.4725
-5.48375
-5.49125
-5.4875
-5.48
-5.47875
-5.4825
-5.48875
-5.4875
-5.49
-5.49125
-5.4925
-5.48875
-5.485
-5.48
-5.4775
-5.48125
-5.485
-5.4825
-5.4825
-5.48375
-5.48125
-5.48125
-5.47375
-5.4625
-5.45125
-5.44875
-5.445
-5.4475
-5.445
-5.435
-5.42875
-5.4325
-5.43125
-5.43
-5.425
-5.4175
-5.40875
-5.4075
-5.41125
-5.40625
-5.41
-5.4175
-5.41375
-5.415
-5.41625
-5.42375
-5.4325
-5.435
-5.43875
-5.44125
-5.44375
-5.43875
-5.44
-5.435
-5.44
-5.43625
-5.44
-5.44375
-5.44625
-5.445
-5.4525
-5.46125
-5.465
-5.46375
-5.4625
-5.46875
-5.47875
-5.48
-5.47875
-5.475
-5.47625
-5.485
-5.48625
-5.4825
-5.4775
-5.48
-5.485
-5.48375
-5.48125
-5.48125
-5.4825
-5.48375
-5.4775
-5.47875
-5.47625
-5.47875
-5.48125
-5.49125
-5.4875
-5.4825
-5.48125
-5.49375
-5.49375
-5.49375
-5.49375
-5.49625
-5.50375
-5.50875
-5.50875
-5.50875
-5.5125
-5.51125
-5.50625
-5.50125
-5.4975
-5.5075
-5.50875
-5.5075
-5.5075
-5.505
-5.50375
-5.4975
-5.495
-5.49125
-5.49125
-5.48375
-5.47875
-5.47625
-5.46875
-5.46
-5.46125
-5.46875
-5.47875
-5.4775
-5.48125
-5.49125
-5.50875
-5.52375
-5.5375
-5.53875
-5.5375
-5.54
-5.5375
-5.5275
-5.52375
-5.54
-5.55
-5.5525
-5.54625
-5.54375
-5.54375
-5.5475
-5.55
-5.5525
-5.55375
-5.535
-5.46
-5.35
-5.23
-5.105
-4.9975
-4.93875
-4.95375
-5.04
-5.15875
-5.28
-5.36875
-5.42125
-5.44625
-5.47125
-5.5
-5.52375
-5.535
-5.54375
-5.55875
-5.5725
-5.57125
-5.56875
-5.57125
-5.56625
-5.56125
-5.5625
-5.5575
-5.55125
-5.55
-5.54875
-5.55125
-5.54875
-5.54875
-5.5425
-5.53625
-5.53375
-5.53125
-5.525
-5.52375
-5.5225
-5.53125
-5.53
-5.53125
-5.52625
-5.52375
-5.5175
-5.5125
-5.505
-5.50375
-5.5025
-5.5125
-5.5375
-5.55875
-5.57375
-5.5825
-5.58875
-5.6
-5.6025
-5.6075
-5.6125
-5.61875
-5.625
-5.6225
-5.62375
-5.63125
-5.6475
-5.6575
-5.66125
-5.66
-5.665
-5.66375
-5.65875
-5.6525
-5.6575
-5.6625
-5.6625
-5.6625
-5.665
-5.6675
-5.6725
-5.6825
-5.6875
-5.68125
-5.67875
-5.68
-5.68625
-5.6875
-5.6825
-5.67375
-5.66125
-5.65625
-5.65375
-5.65
-5.65125
-5.6475
-5.6475
-5.65375
-5.65125
-5.655
-5.655
-5.66375
-5.65625
-5.65375
-5.6475
-5.64125
-5.645
-5.65125
-5.65125
-5.64875
-5.65125
-5.6525
-5.6525
-5.64875
-5.645
-5.63875
-5.63625
-5.6375
-5.63125
-5.62625
-5.61875
-5.60875
-5.6025
-5.5925
-5.58
-5.575
-5.5775
-5.57375
-5.57
-5.565
-5.555
-5.5425
-5.5325
-5.52625
-5.52375
-5.53
-5.53875
-5.54125
-5.54625
-5.5525
-5.55125
-5.55625
-5.565
-5.5625
-5.5525
-5.5475
-5.55
-5.55125
-5.54875
-5.54875
-5.54375
-5.55125
-5.55
-5.545
-5.53875
-5.5325
-5.54125
-5.5525
-5.555
-5.53125
-5.46125
-5.36375
-5.2425
-5.11125
-4.98875
-4.9075
-4.9075
-4.99125
-5.11375
-5.23125
-5.325
-5.39125
-5.42875
-5.44625
-5.4675
-5.49
-5.50875
-5.52375
-5.52125
-5.52125
-5.515
-5.51375
-5.51125
-5.49375
-5.49
-5.4925
-5.49125
-5.48375
-5.48125
-5.47375
-5.4675
-5.465
-5.4625
-5.46625
-5.4675
-5.46375
-5.46125
-5.4575
-5.45375
-5.4425
-5.44
-5.45
-5.45875
-5.4525
-5.44625
-5.43625
-5.43125
-5.425
-5.42125
-5.40875
-5.40375
-5.40625
-5.41625
-5.4125
-5.40625
-5.405
-5.4125
-5.41375
-5.4125
-5.41625
-5.41625
-5.415
-5.42
-5.425
-5.41875
-5.41875
-5.41375
-5.41125
-5.4075
-5.4175
-5.42375
-5.425
-5.42375
-5.4175
-5.42
-5.43375
-5.4425
-5.43875
-5.4375
-5.44375
-5.44125
-5.44
-5.44375
-5.45125
-5.45125
-5.4525
-5.45875
-5.45625
-5.45875
-5.45
-5.4425
-5.43625
-5.43875
-5.44
-5.43875
-5.4375
-5.435
-5.43875
-5.44625
-5.44125
-5.4375
-5.435
-5.4375
-5.44
-5.4325
-5.43125
-5.44
-5.43875
-5.44
-5.4325
-5.4325
-5.4325
-5.43
-5.42875
-5.42625
-5.42125
-5.4175
-5.42375
-5.42125
-5.41375
-5.41125
-5.42375
-5.42
-5.40625
-5.39
-5.3825
-5.37625
-5.3775
-5.3775
-5.37875
-5.37
-5.37125
-5.3825
-5.395
-5.40125
-5.4
-5.40875
-5.41875
-5.42125
-5.4175
-5.4175
-5.4175
-5.42
-5.42125
-5.41625
-5.40875
-5.40375
-5.40625
-5.40625
-5.40625
-5.4075
-5.4175
-5.42375
-5.42875
-5.43
-5.38875
-5.3125
-5.1975
-5.065
-4.9375
-4.8475
-4.82375
-4.86875
-4.96875
-5.09625
-5.20625
-5.275
-5.315
-5.33875
-5.3575
-5.3775
-5.39625
-5.41125
-5.4175
-5.42
-5.42125
-5.42625
-5.42625
-5.42625
-5.4225
-5.425
-5.4325
-5.43375
-5.42
-5.4025
-5.3975
-5.4
-5.40625
-5.4
-5.3975
-5.39375
-5.395
-5.395
-5.3875
-5.385
-5.3775
-5.38
-5.37875
-5.37
-5.37
-5.37875
-5.38375
-5.3825
-5.38
-5.37625
-5.37125
-5.37375
-5.3775
-5.37375
-5.36875
-5.37375
-5.375
-5.37375
-5.37125
-5.37625
-5.38
-5.3875
-5.3875
-5.38875
-5.3875
-5.39125
-5.39875
-5.39875
-5.39625
-5.39875
-5.40375
-5.415
-5.425
-5.43125
-5.4325
-5.4425
-5.44875
-5.4675
-5.47875
-5.4875
-5.49875
-5.5075
-5.5125
-5.51125
-5.51375
-5.5175
-5.5275
-5.53375
-5.5375
-5.5375
-5.53875
-5.53875
-5.54375
-5.53875
-5.54
-5.54
-5.54875
-5.5475
-5.54625
-5.54625
-5.55375
-5.57
-5.57625
-5.5775
-5.58125
-5.5825
-5.58
-5.58
-5.58
-5.5775
-5.5775
-5.5775
-5.575
-5.5725
-5.57
-5.57
-5.5775
-5.585
-5.585
-5.58875
-5.59
-5.5875
-5.58
-5.57625
-5.57
-5.565
-5.5575
-5.56
-5.57375
-5.595
-5.62125
-5.6525
-5.67625
-5.68625
-5.685
-5.68375
-5.68375
-5.6825
-5.68125
-5.68125
-5.67625
-5.67625
-5.675
-5.67375
-5.67125
-5.665
-5.66625
-5.66125
-5.65375
-5.6525
-5.65375
-5.65625
-5.65625
-5.62875
-5.555
-5.4425
-5.3175
-5.17875
-5.05625
-4.98875
-5.00625
-5.09125
-5.21875
-5.3325
-5.41625
-5.4725
-5.5125
-5.545
-5.565
-5.58125
-5.59625
-5.6125
-5.62
-5.62375
-5.62625
-5.6275
-5.63
-5.6325
-5.62875
-5.62625
-5.62375
-5.62875
-5.6275
-5.62375
-5.6175
-5.6175
-5.61875
-5.61875
-5.61625
-5.6125
-5.6075
-5.61125
-5.61375
-5.61625
-5.6125
-5.6075
-5.605
-5.60375
-5.60125
-5.59875
-5.59625
-5.59875
-5.59875
-5.5925
-5.58625
-5.59
-5.595
-5.59875
-5.60375
-5.61
-5.61375
-5.615
-5.615
-5.6125
-5.6075
-5.60375
-5.60625
-5.61
-5.61125
-5.6125
-5.61875
-5.62125
-5.62
-5.61375
-5.61125
-5.615
-5.62125
-5.63
-5.63
-5.63
-5.63625
-5.6475
-5.66375
-5.68
-5.6875
-5.69875
-5.70875
-5.715
-5.71875
-5.72125
-5.7275
-5.74
-5.7475
-5.75
-5.74875
-5.7575
-5.76375
-5.77
-5.76875
-5.7725
-5.78125
-5.79625
-5.79875
-5.79625
-5.79125
-5.795
-5.8025
-5.8075
-5.8075
-5.80375
-5.805
-5.8075
-5.80375
-5.80375
-5.7975
-5.79375
-5.79125
-5.79375
-5.78875
-5.7825
-5.78125
-5.78
-5.7775
-5.7725
-5.7675
-5.76
-5.75625
-5.74
-5.725
-5.7125
-5.705
-5.7
-5.6975
-5.69125
-5.695
-5.7
-5.70875
-5.71625
-5.7225
-5.73125
-5.73375
-5.73875
-5.75
-5.75625
-5.76375
-5.77
-5.7775
-5.78875
-5.7925
-5.78625
-5.7875
-5.79
-5.7925
-5.795
-5.79875
-5.80875
-5.8075
-5.7875
-5.72
-5.62
-5.49625
-5.37
-5.25375
-5.17875
-5.17
-5.2375
-5.36125
-5.48625
-5.57875
-5.63875
-5.6825
-5.7125
-5.73875
-5.75875
-5.76875
-5.77875
-5.78875
-5.7975
-5.80125
-5.805
-5.80625
-5.80875
-5.80625
-5.79875
-5.80125
-5.79875
-5.795
-5.7875
-5.785
-5.77875
-5.77875
-5.78
-5.77875
-5.765
-5.75875
-5.75375
-5.755
-5.75125
-5.75
-5.745
-5.74875
-5.7475
-5.74875
-5.74375
-5.7425
-5.7275
-5.725
-5.725
-5.72125
-5.71375
-5.70875
-5.71
-5.70625
-5.6975
-5.69
-5.69125
-5.7
-5.7075
-5.7025
-5.7025
-5.70375
-5.71
-5.7125
-5.7125
-5.70875
-5.715
-5.72625
-5.735
-5.735
-5.7325
-5.73125
-5.735
-5.7425
-5.74625
-5.7525
-5.75875
-5.76375
-5.765
-5.7625
-5.76125
-5.765
-5.76875
-5.76875
-5.7675
-5.75875
-5.74875
-5.75
-5.74625
-5.74125
-5.74125
-5.7425
-5.74375
-5.74625
-5.7425
-5.7375
-5.73625
-5.7375
-5.7375
-5.7325
-5.72875
-5.7275
-5.72875
-5.72625
-5.7275
-5.72625
-5.72375
-5.72625
-5.7275
-5.71875
-5.71
-5.7125
-5.71625
-5.7225
-5.72125
-5.72125
-5.72
-5.72
-5.7175
-5.72
-5.72
-5.72125
-5.72875
-5.73
-5.73125
-5.7275
-5.725
-5.72625
-5.72375
-5.71875
-5.71375
-5.7125
-5.71875
-5.72
-5.71
-5.69
-5.6825
-5.68375
-5.68375
-5.67875
-5.67625
-5.67875
-5.69375
-5.7075
-5.72
-5.73
-5.73375
-5.7375
-5.73625
-5.7375
-5.73125
-5.73
-5.735
-5.7425
-5.745
-5.7475
-5.74375
-5.745
-5.74
-5.74
-5.74
-5.7525
-5.76375
-5.75625
-5.7075
-5.61625
-5.4975
-5.3625
-5.23125
-5.12125
-5.08375
-5.12875
-5.23875
-5.36875
-5.48375
-5.565
-5.61
-5.6425
-5.66625
-5.68375
-5.695
-5.695
-5.7075
-5.7175
-5.72375
-5.725
-5.72625
-5.72625
-5.725
-5.71875
-5.7175
-5.71625
-5.71875
-5.71625
-5.71125
-5.7075
-5.70375
-5.69625
-5.68375
-5.6725
-5.66125
-5.6525
-5.65625
-5.6575
-5.64875
-5.63875
-5.63375
-5.63375
-5.6325
-5.625
-5.6125
-5.60625
-5.6075
-5.60625
-5.6
-5.5975
-5.595
-5.60125
-5.60375
-5.605
-5.605
-5.6125
-5.62625
-5.63375
-5.6325
-5.63375
-5.635
-5.63875
-5.64
-5.63875
-5.6375
-5.63625
-5.6375
-5.6425
-5.6425
-5.6375
-5.65
-5.67
-5.68125
-5.685
-5.6825
-5.68375
-5.6925
-5.68875
-5.6775
-5.67
-5.67125
-5.67375
-5.67
-5.6675
-5.6675
-5.665
-5.66375
-5.6625
-5.66375
-5.66125
-5.6625
-5.66
-5.65375
-5.64875
-5.645
-5.64625
-5.65375
-5.6575
-5.65625
-5.65375
-5.6675
-5.69
-5.70875
-5.72375
-5.72875
-5.7325
-5.7425
-5.75375
-5.75125
-5.75125
-5.74875
-5.75125
-5.7525
-5.745
-5.73875
-5.74375
-5.74625
-5.745
-5.735
-5.72375
-5.7175
-5.71375
-5.7125
-5.705
-5.7
-5.7
-5.70125
-5.6975
-5.6975
-5.695
-5.69125
-5.6925
-5.69125
-5.685
-5.6775
-5.675
-5.67625
-5.675
-5.6675
-5.6525
-5.65
-5.65
-5.6525
-5.645
-5.6375
-5.63375
-5.635
-5.63375
-5.63
-5.62625
-5.6225
-5.625
-5.62125
-5.61375
-5.6075
-5.605
-5.60625
-5.61
-5.6025
-5.58875
-5.58
-5.57125
-5.5625
-5.55875
-5.55625
-5.555
-5.56125
-5.57
-5.5725
-5.575
-5.58625
-5.6025
-5.61375
-5.61875
-5.61125
-5.60875
-5.61
-5.60875
-5.605
-5.59875
-5.5975
-5.6025
-5.60125
-5.6025
-5.605
-5.60875
-5.61375
-5.61875
-5.62
-5.6
-5.54625
-5.45625
-5.33125
-5.1975
-5.075
-4.985
-4.97125
-5.03125
-5.145
-5.27125
-5.385
-5.4575
-5.5025
-5.5275
-5.55
-5.565
-5.58125
-5.59125
-5.60375
-5.60875
-5.6075
-5.6075
-5.6125
-5.6125
-5.6075
-5.60625
-5.60875
-5.60375
-5.5975
-5.59625
-5.5925
-5.59
-5.59125
-5.585
-5.57625
-5.57625
-5.58
-5.58
-5.5725
-5.565
-5.56375
-5.5625
-5.55375
-5.54875
-5.5425
-5.53875
-5.54
-5.535
-5.5275
-5.52375
-5.52
-5.5225
-5.5225
-5.5225
-5.51375
-5.515
-5.52
-5.52125
-5.52125
-5.51875
-5.52
-5.53
-5.53625
-5.54125
-5.53875
-5.5425
-5.5475
-5.5475
-5.5425
-5.535
-5.5325
-5.53125
-5.535
-5.5325
-5.52625
-5.525
-5.52625
-5.52875
-5.53125
-5.52875
-5.5325
-5.54125
-5.5475
-5.5425
-5.54375
-5.54625
-5.54875
-5.55125
-5.5475
-5.5425
-5.54375
-5.5425
-5.53875
-5.5325
-5.5325
-5.5375
-5.5425
-5.5425
-5.53875
-5.53125
-5.525
-5.52875
-5.52625
-5.52
-5.51875
-5.52125
-5.52
-5.52125
-5.51375
-5.51125
-5.50875
-5.50875
-5.51
-5.51125
-5.5025
-5.5025
-5.50625
-5.5075
-5.5025
-5.495
-5.49125
-5.495
-5.49375
-5.49125
-5.48875
-5.4875
-5.4875
-5.48875
-5.48875
-5.49125
-5.4925
-5.49375
-5.49125
-5.48625
-5.47875
-5.47875
-5.47625
-5.47375
-5.4725
-5.465
-5.46
-5.46
-5.46375
-5.46375
-5.4625
-5.45875
-5.4625
-5.465
-5.46125
-5.45875
-5.4525
-5.45
-5.45
-5.45
-5.44625
-5.445
-5.4475
-5.4475
-5.44375
-5.43375
-5.42375
-5.40875
-5.4
-5.39625
-5.39875
-5.4025
-5.40375
-5.4075
-5.4125
-5.42625
-5.43625
-5.4525
-5.4575
-5.45875
-5.45125
-5.4475
-5.44375
-5.445
-5.4425
-5.43625
-5.43875
-5.44375
-5.445
-5.4375
-5.4275
-5.42375
-5.42625
-5.4325
-5.43
-5.41125
-5.3575
-5.27
-5.1525
-5.03
-4.92
-4.85
-4.86125
-4.94125
-5.0575
-5.1725
-5.255
-5.30125
-5.3275
-5.33625
-5.35125
-5.36
-5.3775
-5.3875
-5.395
-5.39125
-5.39375
-5.39875
-5.4
-5.3975
-5.39625
-5.39375
-5.39125
-5.385
-5.37875
-5.375
-5.37125
-5.36875
-5.3675
-5.36375
-5.35875
-5.35125
-5.34875
-5.35125
-5.345
-5.34875
-5.35
-5.35375
-5.35
-5.345
-5.3375
-5.33375
-5.3325
-5.33375
-5.3275
-5.32625
-5.32
-5.3175
-5.31125
-5.30625
-5.30625
-5.30625
-5.31
-5.31375
-5.315
-5.31625
-5.3225
-5.33375
-5.335
-5.33375
-5.3325
-5.34
-5.34625
-5.3475
-5.34375
-5.3375
-5.33875
-5.335
-5.33125
-5.32375
-5.3275
-5.3275
-5.33125
-5.3375
-5.34125
-5.345
-5.3475
-5.3525
-5.3475
-5.345
-5.3425
-5.34125
-5.34125
-5.34625
-5.34875
-5.345
-5.34375
-5.345
-5.345
-5.3425
-5.33625
-5.33375
-5.33375
-5.335
-5.3325
-5.325
-5.32375
-5.32625
-5.33
-5.3275
-5.31625
-5.31625
-5.3275
-5.3325
-5.33375
-5.33375
-5.3325
-5.33625
-5.33875
-5.33875
-5.33625
-5.3375
-5.34
-5.34
-5.33625
-5.34
-5.3475
-5.35375
-5.35625
-5.3525
-5.34625
-5.3475
-5.35
-5.35125
-5.3475
-5.3475
-5.34375
-5.345
-5.35125
-5.35125
-5.3475
-5.35125
-5.36
-5.36
-5.3625
-5.35875
-5.3575
-5.35625
-5.35875
-5.35875
-5.3525
-5.35375
-5.3575
-5.355
-5.3525
-5.34875
-5.34875
-5.35
-5.3475
-5.345
-5.33875
-5.34125
-5.34625
-5.34375
-5.34125
-5.3425
-5.3425
-5.3425
-5.33875
-5.3325
-5.31875
-5.31
-5.3
-5.29875
-5.29625
-5.29375
-5.2925
-5.3075
-5.3175
-5.33
-5.34125
-5.345
-5.34625
-5.34625
-5.3475
-5.35
-5.35375
-5.36
-5.36
-5.35875
-5.355
-5.355
-5.35375
-5.35625
-5.35875
-5.36
-5.365
-5.37375
-5.36375
-5.3075
-5.21
-5.08875
-4.96875
-4.8525
-4.77
-4.75375
-4.815
-4.9325
-5.06375
-5.1625
-5.225
-5.2625
-5.29
-5.315
-5.33375
-5.34875
-5.3625
-5.3775
-5.38875
-5.39
-5.3875
-5.38625
-5.3925
-5.39625
-5.39125
-5.38875
-5.38625
-5.38625
-5.38875
-5.39
-5.38125
-5.3775
-5.38
-5.38
-5.375
-5.37
-5.36625
-5.3625
-5.35625
-5.35
-5.345
-5.3425
-5.34125
-5.34375
-5.34625
-5.34375
-5.34375
-5.34625
-5.34375
-5.33625
-5.32625
-5.3225
-5.32625
-5.34
-5.3525
-5.36375
-5.37125
-5.37625
-5.3825
-5.3825
-5.38875
-5.3925
-5.39875
-5.4025
-5.40375
-5.4025
-5.405
-5.405
-5.4025
-5.39625
-5.39375
-5.38625
-5.38375
-5.38375
-5.38875
-5.38625
-5.38625
-5.39625
-5.4025
-5.405
-5.4075
-5.40625
-5.41
-5.41375
-5.4125
-5.405
-5.40375
-5.40125
-5.4
-5.39625
-5.39
-5.385
-5.385
-5.385
-5.38
-5.37125
-5.3675
-5.36875
-5.37
-5.36625
-5.35875
-5.355
-5.35375
-5.3575
-5.35625
-5.34875
-5.3475
-5.35375
-5.355
-5.35
-5.34375
-5.34625
-5.3475
-5.34625
-5.34625
-5.34875
-5.34875
-5.355
-5.35375
-5.35
-5.345
-5.345
-5.3525
-5.355
-5.3525
-5.3475
-5.34625
-5.34625
-5.35125
-5.3525
-5.35125
-5.34875
-5.35125
-5.3525
-5.35125
-5.35
-5.34625
-5.34875
-5.35
-5.34625
-5.34125
-5.34125
-5.34625
-5.34875
-5.345
-5.33625
-5.33125
-5.3275
-5.3275
-5.32375
-5.32
-5.31875
-5.3225
-5.32125
-5.315
-5.3125
-5.31
-5.31125
-5.31
-5.31125
-5.3125
-5.31
-5.3125
-5.315
-5.3125
-5.30875
-5.30625
-5.31125
-5.3125
-5.30875
-5.305
-5.29875
-5.3
-5.30125
-5.3
-5.30125
-5.3
-5.29875
-5.2875
-5.27625
-5.26375
-5.25375
-5.255
-5.25625
-5.25375
-5.2575
-5.26875
-5.28125
-5.29375
-5.29875
-5.30375
-5.305
-5.30875
-5.31375
-5.31625
-5.3175
-5.32
-5.31875
-5.31875
-5.315
-5.30375
-5.30125
-5.305
-5.30875
-5.31
-5.315
-5.31375
-5.2875
-5.22125
-5.1125
-4.97625
-4.84375
-4.7375
-4.67125
-4.67875
-4.7575
-4.88625
-5.0175
-5.11375
-5.175
-5.20875
-5.23375
-5.2575
-5.28
-5.29125
-5.30375
-5.31125
-5.31625
-5.315
-5.3175
-5.31625
-5.3175
-5.32
-5.325
-5.3225
-5.31875
-5.3175
-5.31375
-5.3075
-5.30875
-5.30375
-5.3025
-5.30625
-5.305
-5.30125
-5.29625
-5.29125
-5.28875
-5.28625
-5.27875
-5.27625
-5.27375
-5.27375
-5.2725
-5.27
-5.2575
-5.25875
-5.26
-5.2575
-5.24875
-5.24
-5.23625
-5.2375
-5.23875
-5.23625
-5.23625
-5.2375
-5.245
-5.25375
-5.255
-5.25625
-5.26125
-5.27125
-5.2775
-5.275
-5.27375
-5.2725
-5.275
-5.275
-5.27125
-5.26875
-5.27375
-5.27375
-5.27375
-5.275
-5.27375
-5.2675
-5.27625
-5.29
-5.30125
-5.3075
-5.31125
-5.31125
-5.31125
-5.31125
-5.305
-5.29625
-5.2975
-5.295
-5.28875
-5.28375
-5.27375
-5.26625
-5.26625
-5.26
-5.25375
-5.2475
-5.24375
-5.245
-5.24375
-5.24
-5.24125
-5.2475
-5.2475
-5.25
-5.2475
-5.24625
-5.24375
-5.24875
-5.2525
-5.2525
-5.25125
-5.2525
-5.255
-5.25375
-5.24875
-5.25
-5.25625
-5.2625
-5.26375
-5.2575
-5.25375
-5.25375
-5.25625
-5.2525
-5.25125
-5.25
-5.255
-5.25625
-5.25625
-5.2575
-5.2575
-5.26
-5.26625
-5.265
-5.26
-5.255
-5.26125
-5.26125
-5.2625
-5.25375
-5.25375
-5.2575
-5.26375
-5.26125
-5.26125
-5.25625
-5.2575
-5.2575
-5.25625
-5.24625
-5.2475
-5.255
-5.2625
-5.265
-5.26
-5.255
-5.2575
-5.25875
-5.26
-5.2575
-5.2575
-5.25875
-5.255
-5.2525
-5.24875
-5.24875
-5.24875
-5.25125
-5.24875
-5.2475
-5.25
-5.25625
-5.2575
-5.255
-5.25
-5.24375
-5.24625
-5.2525
-5.2575
-5.25625
-5.2525
-5.25375
-5.25125
-5.25
-5.24
-5.22875
-5.22125
-5.2125
-5.205
-5.2
-5.20375
-5.205
-5.21375
-5.22375
-5.2325
-5.24375
-5.255
-5.2575
-5.26375
-5.26375
-5.26375
-5.2675
-5.27375
-5.2725
-5.26875
-5.26625
-5.27
-5.27375
-5.27
-5.27125
-5.28
-5.2925
-5.30375
-5.29375
-5.24
-5.14125
-5.02625
-4.90125
-4.7825
-4.6975
-4.67375
-4.7325
-4.84375
-4.97125
-5.075
-5.1475
-5.19375
-5.2275
-5.24875
-5.2675
-5.28375
-5.29375
-5.30625
-5.31625
-5.32125
-5.3225
-5.325
-5.3275
-5.3225
-5.315
-5.31
-5.31375
-5.3125
-5.30625
-5.29875
-5.295
-5.2925
-5.29
-5.2875
-5.28
-5.27375
-5.27
-5.265
-5.25875
-5.24875
-5.24
-5.24
-5.24
-5.23875
-5.235
-5.2325
-5.2275
-5.23
-5.22625
-5.22125
-5.21375
-5.21375
-5.21625
-5.21625
-5.215
-5.2125
-5.2125
-5.215
-5.21625
-5.22
-5.21875
-5.22375
-5.2325
-5.235
-5.23625
-5.235
-5.24125
-5.245
-5.2475
-5.24125
-5.24
-5.24
-5.2425
-5.23625
-5.2325
-5.2325
-5.23875
-5.24375
-5.24875
-5.2525
-5.25625
-5.2575
-5.26375
-5.265
-5.2675
-5.27125
-5.2725
-5.27625
-5.28
-5.27875
-5.27625
-5.27625
-5.27875
-5.2775
-5.27625
-5.26875
-5.265
-5.2625
-5.26
-5.25625
-5.2525
-5.25375
-5.25625
-5.2625
-5.2575
-5.255
-5.255
-5.255
-5.25625
-5.2575
-5.25875
-5.26375
-5.26375
-5.26375
-5.2625
-5.2625
-5.265
-5.2675
-5.27125
-5.26875
-5.27
-5.28
-5.28625
-5.285
-5.28125
-5.2825
-5.28625
-5.28625
-5.28
-5.28
-5.28125
-5.28375
-5.2875
-5.28625
-5.28625
-5.2875
-5.2925
-5.29
-5.2875
-5.28875
-5.28625
-5.2875
-5.28875
-5.285
-5.285
-5.2825
-5.28375
-5.28875
-5.28875
-5.285
-5.2875
-5.29125
-5.2925
-5.29
-5.2875
-5.2825
-5.28625
-5.29125
-5.29
-5.2875
-5.29
-5.29125
-5.2925
-5.29125
-5.2875
-5.2875
-5.28375
-5.2875
-5.28
-5.2775
-5.27375
-5.275
-5.27375
-5.27375
-5.27
-5.2675
-5.2725
-5.28
-5.2775
-5.26875
-5.2675
-5.26625
-5.26625
-5.26625
-5.26125
-5.26
-5.26125
-5.26
-5.24875
-5.2375
-5.22375
-5.21375
-5.21
-5.21
-5.20875
-5.2075
-5.21625
-5.22875
-5.24
-5.24875
-5.26
-5.2675
-5.275
-5.2725
-5.27375
-5.2725
-5.2775
-5.28
-5.27375
-5.2625
-5.25875
-5.2625
-5.26625
-5.27
-5.26625
-5.27375
-5.28375
-5.26375
-5.195
-5.0875
-4.9575
-4.83125
-4.72125
-4.65125
-4.66
-4.73625
-4.86125
-4.9875
-5.08
-5.14125
-5.1725
-5.20125
-5.21875
-5.235
-5.2475
-5.2575
-5.27
-5.2775
-5.27875
-5.27625
-5.275
-5.27875
-5.28375
-5.28375
-5.2775
-5.27625
-5.27875
-5.2775
-5.27125
-5.26625
-5.26625
-5.26625
-5.26
-5.25625
-5.25375
-5.25125
-5.2525
-5.24875
-5.245
-5.23875
-5.23875
-5.24375
-5.24625
-5.23875
-5.235
-5.2275
-5.2275
-5.22375
-5.21375
-5.20875
-5.20625
-5.21
-5.215
-5.21
-5.2125
-5.21375
-5.22125
-5.22625
-5.22625
-5.225
-5.22375
-5.23125
-5.23375
-5.24125
-5.2425
-5.2425
-5.2425
-5.24625
-5.245
-5.24375
-5.24
-5.2425
-5.2425
-5.24375
-5.24125
-5.2375
-5.245
-5.2525
-5.25375
-5.25625
-5.255
-5.26375
-5.2725
-5.2725
-5.265
-5.26125
-5.26375
-5.26625
-5.26125
-5.25375
-5.2525
-5.25625
-5.25875
-5.25625
-5.25125
-5.24375
-5.24125
-5.235
-5.23375
-5.22625
-5.22375
-5.2225
-5.22875
-5.2275
-5.2275
-5.22625
-5.2275
-5.2275
-5.22625
-5.21875
-5.20875
-5.205
-5.20625
-5.20625
-5.20375
-5.19875
-5.1975
-5.195
-5.19625
-5.19375
-5.1975
-5.20375
-5.2075
-5.20625
-5.20375
-5.205
-5.21125
-5.2125
-5.2025
-5.2
-5.2025
-5.20625
-5.21
-5.21125
-5.20875
-5.20875
-5.2075
-5.21375
-5.21875
-5.2175
-5.21125
-5.2125
-5.215
-5.21125
-5.2075
-5.20875
-5.2125
-5.21125
-5.2125
-5.21125
-5.2125
-5.21
-5.2075
-5.215
-5.215
-5.215
-5.215
-5.22
-5.2225
-5.22
-5.2175
-5.21625
-5.21875
-5.21375
-5.21
-5.20875
-5.20875
-5.20375
-5.20375
-5.2025
-5.20375
-5.205
-5.20875
-5.20375
-5.19375
-5.1825
-5.17625
-5.17
-5.16875
-5.16375
-5.16375
-5.165
-5.17125
-5.17625
-5.185
-5.1925
-5.20625
-5.21375
-5.21625
-5.22
-5.21875
-5.22375
-5.22125
-5.215
-5.20875
-5.2075
-5.21
-5.22
-5.22
-5.21625
-5.215
-5.225
-5.23
-5.2025
-5.12625
-5.01625
-4.89875
-4.785
-4.68875
-4.64625
-4.68875
-4.7925
-4.92
-5.0275
-5.095
-5.13375
-5.1625
-5.1825
-5.1975
-5.20875
-5.2225
-5.2325
-5.23875
-5.24125
-5.23875
-5.2375
-5.24
-5.24125
-5.24375
-5.2375
-5.235
-5.235
-5.23875
-5.2375
-5.23375
-5.225
-5.2275
-5.22875
-5.225
-5.21875
-5.2175
-5.22
-5.2225
-5.21875
-5.21125
-5.205
-5.20375
-5.205
-5.20125
-5.19
-5.1875
-5.18875
-5.1875
-5.1825
-5.17375
-5.17
-5.17
-5.17625
-5.175
-5.1725
-5.17
-5.17375
-5.17625
-5.1775
-5.1725
-5.175
-5.18125
-5.18625
-5.19
-5.18625
-5.18875
-5.19625
-5.2
-5.19875
-5.19375
-5.19125
-5.19125
-5.1975
-5.2025
-5.21125
-5.21
-5.21375
-5.22125
-5.22125
-5.22375
-5.225
-5.2325
-5.24125
-5.24125
-5.2375
-5.23875
-5.2425
-5.2475
-5.24625
-5.2425
-5.235
-5.23625
-5.24125
-5.24
-5.23125
-5.2275
-5.22625
-5.22625
-5.2275
-5.22625
-5.225
-5.225
-5.22625
-5.22375
-5.22
-5.22125
-5.2275
-5.2325
-5.23
-5.23
-5.23125
-5.23
-5.2325
-5.23375
-5.23375
-5.2325
-5.2325
-5.2325
-5.2375
-5.235
-5.235
-5.2375
-5.23875
-5.24
-5.24
-5.24625
-5.2525
-5.25375
-5.25625
-5.2525
-5.25375
-5.255
-5.25875
-5.2575
-5.2575
-5.2525
-5.25125
-5.25125
-5.2475
-5.245
-5.2375
-5.23875
-5.24
-5.24375
-5.24125
-5.23875
-5.23625
-5.2425
-5.2375
-5.235
-5.235
-5.23625
-5.23375
-5.2325
-5.22875
-5.22625
-5.2275
-5.2275
-5.22875
-5.2225
-5.22125
-5.225
-5.2325
-5.24
-5.24375
-5.24125
-5.24125
-5.23875
-5.2375
-5.2375
-5.23625
-5.2375
-5.23625
-5.22625
-5.21625
-5.21
-5.21
-5.20625
-5.205
-5.195
-5.19625
-5.20375
-5.21375
-5.2275
-5.235
-5.2425
-5.25125
-5.25375
-5.255
-5.25
-5.2525
-5.26
-5.26125
-5.25875
-5.25625
-5.25625
-5.255
-5.255
-5.25625
-5.255
-5.26
-5.27125
-5.26625
-5.23
-5.14
-5.02
-4.88375
-4.76
-4.66625
-4.63375
-4.6675
-4.77375
-4.9075
-5.02125
-5.0925
-5.1375
-5.17
-5.195
-5.20875
-5.22125
-5.235
-5.245
-5.255
-5.26125
-5.2575
-5.25625
-5.25625
-5.25875
-5.2525
-5.245
-5.24625
-5.24625
-5.2475
-5.2425
-5.2375
-5.23
-5.2225
-5.2175
-5.21375
-5.205
-5.20375
-5.2
-5.19875
-5.2
-5.19125
-5.18375
-5.18
-5.17625
-5.1675
-5.16
-5.1575
-5.15625
-5.1525
-5.145
-5.14125
-5.13625
-5.13875
-5.1375
-5.1375
-5.13625
-5.13375
-5.1375
-5.1425
-5.14625
-5.145
-5.14875
-5.15625
-5.165
-5.1675
-5.16875
-5.17
-5.17125
-5.16875
-5.17375
-5.1725
-5.175
-5.17875
-5.17875
-5.18125
-5.18
-5.1825
-5.19125
-5.195
-5.19875
-5.2
-5.2025
-5.2075
-5.21375
-5.21375
-5.21625
-5.2175
-5.21875
-5.22125
-5.2225
-5.22125
-5.22125
-5.2225
-5.22
-5.21625
-5.21
-5.215
-5.22
-5.22125
-5.2175
-5.21625
-5.2125
-5.215
-5.2175
-5.21875
-5.21875
-5.22
-5.22375
-5.2275
-5.2275
-5.2175
-5.2125
-5.21875
-5.22625
-5.22875
-5.2275
-5.22375
-5.23
-5.235
-5.2375
-5.235
-5.23
-5.23125
-5.2325
-5.22875
-5.23125
-5.23
-5.23
-5.23
-5.23375
-5.2275
-5.22625
-5.2275
-5.23
-5.2325
-5.23125
-5.2275
-5.22875
-5.2325
-5.2325
-5.235
-5.225
-5.22375
-5.225
-5.2225
-5.21625
-5.21375
-5.21875
-5.2275
-5.22875
-5.2225
-5.215
-5.21125
-5.21125
-5.21375
-5.21
-5.20875
-5.21125
-5.215
-5.21375
-5.21375
-5.21125
-5.21375
-5.21375
-5.21375
-5.21125
-5.20875
-5.2075
-5.205
-5.20375
-5.19875
-5.19375
-5.195
-5.1925
-5.185
-5.16875
-5.15375
-5.1525
-5.15375
-5.15625
-5.15625
-5.16125
-5.17125
-5.18625
-5.19875
-5.21375
-5.21625
-5.2225
-5.2275
-5.23
-5.22625
-5.2275
-5.22875
-5.235
-5.235
-5.23375
-5.23125
-5.2325
-5.23375
-5.235
-5.23625
-5.24125
-5.24
-5.21
-5.13875
-5.02125
-4.885
-4.7575
-4.655
-4.5975
-4.61875
-4.71
-4.8425
-4.97
-5.0625
-5.115
-5.15125
-5.17875
-5.19875
-5.215
-5.23
-5.23875
-5.24625
-5.25125
-5.26
-5.2575
-5.2525
-5.2525
-5.255
-5.25125
-5.25125
-5.24625
-5.245
-5.24375
-5.24375
-5.23875
-5.235
-5.2375
-5.2375
-5.2325
-5.225
-5.21875
-5.2175
-5.21625
-5.2125
-5.20375
-5.2025
-5.205
-5.20375
-5.19875
-5.1875
-5.185
-5.1825
-5.17875
-5.1725
-5.1675
-5.1575
-5.15875
-5.16375
-5.1625
-5.16
-5.16125
-5.165
-5.165
-5.1625
-5.16375
-5.16625
-5.175
-5.17875
-5.18125
-5.1775
-5.17375
-5.17625
-5.18125
-5.18125
-5.1775
-5.175
-5.17125
-5.1725
-5.175
-5.175
-5.1675
-5.17625
-5.18625
-5.19625
-5.2
-5.20375
-5.20375
-5.20375
-5.2025
-5.2025
-5.2
-5.2025
-5.20625
-5.205
-5.205
-5.2
-5.2
-5.20125
-5.19875
-5.19125
-5.18125
-5.18
-5.185
-5.18875
-5.185
-5.18375
-5.1875
-5.18375
-5.1825
-5.17625
-5.17375
-5.1775
-5.185
-5.18875
-5.185
-5.1825
-5.18625
-5.18625
-5.18875
-5.185
-5.1775
-5.18375
-5.1875
-5.18625
-5.18
-5.1775
-5.18
-5.18125
-5.18125
-5.17375
-5.17625
-5.1775
-5.18375
-5.18375
-5.18
-5.1775
-5.17875
-5.1825
-5.18
-5.17625
-5.17125
-5.17375
-5.17625
-5.17625
-5.16875
-5.1675
-5.16875
-5.17375
-5.17375
-5.17
-5.16875
-5.16625
-5.17125
-5.1725
-5.1675
-5.15875
-5.15875
-5.16
-5.16125
-5.16125
-5.16
-5.16125
-5.1625
-5.16125
-5.16125
-5.15
-5.1525
-5.15375
-5.1575
-5.155
-5.1525
-5.15125
-5.15
-5.1475
-5.145
-5.14
-5.14375
-5.1425
-5.13625
-5.12375
-5.115
-5.10625
-5.105
-5.105
-5.1025
-5.10125
-5.11
-5.12
-5.1275
-5.13875
-5.14625
-5.15625
-5.16625
-5.16875
-5.1625
-5.16375
-5.165
-5.16625
-5.165
-5.165
-5.1625
-5.165
-5.1675
-5.17125
-5.17
-5.1725
-5.18375
-5.18875
-5.16625
-5.1025
-4.98875
-4.8625
-4.73875
-4.62625
-4.5475
-4.54625
-4.625
-4.7475
-4.87625
-4.9725
-5.03625
-5.0775
-5.1075
-5.125
-5.14125
-5.1525
-5.16
-5.1675
-5.175
-5.17625
-5.17625
-5.175
-5.175
-5.175
-5.17125
-5.16625
-5.17
-5.17
-5.17
-5.16625
-5.165
-5.1675
-5.17125
-5.16875
-5.1675
-5.1625
-5.1575
-5.155
-5.15375
-5.1475
-5.1425
-5.14
-5.13625
-5.1275
-5.12
-5.11125
-5.10125
-5.105
-5.10625
-5.10125
-5.09375
-5.08875
-5.0875
-5.08875
-5.085
-5.085
-5.08625
-5.08875
-5.09125
-5.09125
-5.09125
-5.09625
-5.09375
-5.09875
-5.09875
-5.1
-5.10625
-5.1125
-5.11625
-5.10875
-5.105
-5.10625
-5.11375
-5.1175
-5.1175
-5.12125
-5.12875
-5.13625
-5.14
-5.14125
-5.14375
-5.14375
-5.1475
-5.14875
-5.15125
-5.14875
-5.155
-5.16
-5.1625
-5.16375
-5.15625
-5.16125
-5.16375
-5.15875
-5.1575
-5.15375
-5.1525
-5.15
-5.1475
-5.15125
-5.15125
-5.14625
-5.14125
-5.14125
-5.14
-5.14125
-5.1425
-5.14625
-5.14375
-5.1425
-5.13875
-5.13625
-5.13875
-5.135
-5.13125
-5.12875
-5.12625
-5.1325
-5.13375
-5.13375
-5.125
-5.13375
-5.14
-5.14625
-5.14375
-5.14625
-5.14875
-5.1525
-5.155
-5.15125
-5.15
-5.15
-5.15
-5.1525
-5.15625
-5.15
-5.14875
-5.15
-5.15375
-5.15625
-5.15375
-5.155
-5.15875
-5.15625
-5.15375
-5.14875
-5.1475
-5.15125
-5.1525
-5.14625
-5.14375
-5.14375
-5.1525
-5.15125
-5.14875
-5.1425
-5.1425
-5.14625
-5.14375
-5.1375
-5.13125
-5.13375
-5.135
-5.1375
-5.12625
-5.11375
-5.10625
-5.10125
-5.0975
-5.09
-5.08625
-5.08875
-5.095
-5.10125
-5.10375
-5.1125
-5.1225
-5.1375
-5.1425
-5.1475
-5.14125
-5.14375
-5.145
-5.14875
-5.145
-5.1425
-5.14
-5.14
-5.1425
-5.14375
-5.14375
-5.14375
-5.15125
-5.1575
-5.1425
-5.08625
-4.98875
-4.86625
-4.74
-4.6225
-4.55125
-4.5625
-4.64375
-4.7675
-4.8925
-4.98
-5.035
-5.065
-5.08875
-5.09625
-5.105
-5.115
-5.12375
-5.13625
-5.1425
-5.14375
-5.1475
-5.1475
-5.14625
-5.14125
-5.14
-5.13875
-5.14
-5.1375
-5.135
-5.13625
-5.13625
-5.14
-5.13375
-5.1275
-5.12125
-5.12
-5.11625
-5.1175
-5.11875
-5.115
-5.1125
-5.11125
-5.11
-5.105
-5.0975
-5.0925
-5.09
-5.08625
-5.07875
-5.0725
-5.07125
-5.0725
-5.07
-5.0625
-5.0575
-5.05875
-5.065
-5.065
-5.06125
-5.05625
-5.06375
-5.06625
-5.06625
-5.065
-5.065
-5.0725
-5.0775
-5.07875
-5.075
-5.07
-5.07
-5.07625
-5.0825
-5.08875
-5.085
-5.085
-5.0925
-5.09875
-5.1
-5.1
-5.1125
-5.11875
-5.125
-5.12375
-5.12125
-5.12375
-5.1275
-5.13125
-5.12875
-5.13
-5.12875
-5.13
-5.1225
-5.12
-5.12125
-5.11875
-5.11625
-5.11625
-5.115
-5.1125
-5.1125
-5.1175
-5.11625
-5.11
-5.1075
-5.1025
-5.1075
-5.10875
-5.10875
-5.10875
-5.11
-5.11875
-5.12125
-5.1125
-5.11
-5.11125
-5.11625
-5.11875
-5.1225
-5.11625
-5.12125
-5.125
-5.12625
-5.12125
-5.1225
-5.12375
-5.12625
-5.12875
-5.12875
-5.12625
-5.13125
-5.1375
-5.13875
-5.1325
-5.13125
-5.12875
-5.13125
-5.1325
-5.13125
-5.125
-5.13375
-5.13875
-5.14125
-5.135
-5.13125
-5.1325
-5.13625
-5.135
-5.1325
-5.12625
-5.125
-5.12875
-5.13375
-5.13375
-5.12875
-5.1325
-5.135
-5.1325
-5.12875
-5.1275
-5.12625
-5.13
-5.1325
-5.14
-5.1575
-5.18625
-5.2075
-5.23
-5.2375
-5.2425
-5.24
-5.23875
-5.22875
-5.2175
-5.20625
-5.2125
-5.21875
-5.22375
-5.2275
-5.23
-5.2425
-5.2575
-5.27125
-5.27375
-5.27125
-5.2675
-5.26875
-5.2725
-5.27
-5.265
-5.26375
-5.2675
-5.27125
-5.27125
-5.2725
-5.275
-5.28125
-5.28
-5.28375
-5.2825
-5.265
-5.2075
-5.1075
-4.97875
-4.8525
-4.73875
-4.67125
-4.675
-4.75125
-4.8775
-5.00625
-5.1125
-5.18125
-5.22125
-5.24625
-5.26875
-5.2925
-5.31
-5.32125
-5.32625
-5.33125
-5.33125
-5.3325
-5.33125
-5.32875
-5.32625
-5.325
-5.32125
-5.3125
-5.3075
-5.31
-5.315
-5.31375
-5.31125
-5.305
-5.3
-5.295
-5.2925
-5.28
-5.27625
-5.27375
-5.27625
-5.27375
-5.265
-5.255
-5.2525
-5.2525
-5.2475
-5.23875
-5.22375
-5.22
-5.2225
-5.22375
-5.22875
-5.2225
-5.2225
-5.22375
-5.225
-5.22375
-5.2225
-5.225
-5.2325
-5.2425
-5.2425
-5.25
-5.25625
-5.2625
-5.265
-5.26625
-5.255
-5.25625
-5.26375
-5.27
-5.27125
-5.27
-5.2725
-5.2775
-5.2825
-5.285
-5.28125
-5.27875
-5.285
-5.29125
-5.29125
-5.2925
-5.29
-5.295
-5.2975
-5.295
-5.29
-5.29125
-5.295
-5.2925
-5.28375
-5.27625
-5.27125
-5.27125
-5.27375
-5.26875
-5.26125
-5.2575
-5.26
-5.2575
-5.255
-5.24875
-5.24375
-5.24375
-5.23625
-5.2275
-5.2225
-5.2225
-5.22125
-5.2175
-5.215
-5.20875
-5.205
-5.20375
-5.20375
-5.2
-5.2
-5.2025
-5.2025
-5.20375
-5.19875
-5.19375
-5.195
-5.20375
-5.205
-5.20625
-5.19625
-5.19375
-5.2025
-5.2075
-5.20375
-5.1975
-5.19375
-5.19625
-5.1975
-5.19625
-5.195
-5.195
-5.19625
-5.1975
-5.19875
-5.19375
-5.1975
-5.19875
-5.19625
-5.1925
-5.19125
-5.1875
-5.19
-5.18625
-5.18
-5.17625
-5.17625
-5.17625
-5.17625
-5.16875
-5.16375
-5.16125
-5.165
-5.16125
-5.1575
-5.1525
-5.14875
-5.15125
-5.1525
-5.15125
-5.15
-5.14875
-5.1475
-5.145
-5.1425
-5.1425
-5.13875
-5.13875
-5.135
-5.13125
-5.12
-5.115
-5.10875
-5.095
-5.07875
-5.0725
-5.07125
-5.07875
-5.0825
-5.08875
-5.09375
-5.1025
-5.1125
-5.12125
-5.12625
-5.13
-5.1325
-5.13625
-5.1375
-5.13125
-5.12625
-5.12625
-5.135
-5.13125
-5.12125
-5.11875
-5.12
-5.1275
-5.135
-5.13375
-5.1225
-5.08125
-4.9975
-4.87875
-4.74125
-4.60625
-4.50625
-4.465
-4.50625
-4.60125
-4.72625
-4.84625
-4.94
-4.99375
-5.02375
-5.0425
-5.0625
-5.0825
-5.09875
-5.10625
-5.10625
-5.11375
-5.11625
-5.1175
-5.1175
-5.105
-5.1025
-5.10375
-5.10625
-5.09875
-5.08875
-5.0825
-5.08
-5.0775
-5.07375
-5.07125
-5.06875
-5.07125
-5.065
-5.06
-5.05375
-5.05125
-5.0525
-5.05375
-5.04625
-5.04
-5.03375
-5.035
-5.03125
-5.02375
-5.015
-5.0125
-5.015
-5.0125
-5.00375
-4.99375
-4.9925
-4.99375
-4.995
-4.9975
-4.995
-4.995
-5.0025
-5.00875
-5.0075
-5.00875
-5.01625
-5.02125
-5.02625
-5.02625
-5.02125
-5.025
-5.03125
-5.0325
-5.035
-5.0325
-5.03375
-5.0425
-5.05
-5.05
-5.05125
-5.06
-5.07125
-5.0775
-5.0775
-5.07375
-5.08
-5.08125
-5.08
-5.07875
-5.0775
-5.08125
-5.08625
-5.0825
-5.07375
-5.06875
-5.0675
-5.07
-5.06625
-5.06125
-5.05375
-5.05125
-5.0475
-5.045
-5.0425
-5.03625
-5.0325
-5.035
-5.03375
-5.0275
-5.02
-5.01375
-5.0125
-5.01
-5.01125
-5.00125
-4.99875
-5.00125
-5.00125
-4.9975
-4.9925
-4.98875
-4.99125
-4.99125
-4.9875
-4.9825
-4.98125
-4.98125
-4.9875
-4.99
-4.98375
-4.98
-4.9825
-4.9875
-4.9875
-4.99
-4.9875
-4.9925
-4.99
-4.98625
-4.98375
-4.98875
-4.99625
-5.005
-5.00125
-4.99875
-4.99875
-5.00125
-5.00125
-4.9975
-4.99625
-4.9975
-5.00125
-5.005
-5.0075
-5.00625
-5.005
-5.01
-5.01
-5.00875
-5.0075
-5.0075
-5.01375
-5.01125
-5.005
-4.995
-4.98625
-4.97625
-4.9725
-4.96125
-4.95375
-4.9475
-4.945
-4.945
-4.945
-4.9425
-4.94
-4.94
-4.9425
-4.935
-4.93125
-4.93375
-4.93375
-4.92875
-4.91625
-4.905
-4.90125
-4.89875
-4.9
-4.9025
-4.905
-4.9125
-4.92625
-4.94
-4.945
-4.95
-4.9525
-4.955
-4.95125
-4.95
-4.9425
-4.945
-4.95375
-4.95375
-4.95875
-4.95625
-4.9575
-4.96125
-4.96375
-4.965
-4.97375
-4.96875
-4.935
-4.85375
-4.73875
-4.6
-4.4675
-4.36875
-4.32125
-4.3525
-4.4475
-4.5775
-4.70875
-4.79625
-4.845
-4.87625
-4.905
-4.925
-4.9475
-4.96125
-4.97125
-4.975
-4.9825
-4.99
-4.99375
-4.99375
-4.995
-4.995
-4.99625
-4.9925
-4.98875
-4.98625
-4.99
-4.99
-4.9875
-4.98875
-4.98625
-4.98625
-4.9825
-4.9875
-4.97875
-4.97875
-4.97875
-4.97625
-4.97125
-4.9675
-4.96625
-4.9675
-4.96125
-4.96
-4.9575
-4.95875
-4.96
-4.96
-4.9525
-4.94375
-4.94
-4.93625
-4.93375
-4.92875
-4.92
-4.9225
-4.9275
-4.93125
-4.9325
-4.93
-4.92875
-4.93125
-4.9325
-4.9325
-4.93125
-4.93125
-4.93
-4.9325
-4.93125
-4.9275
-4.9325
-4.93625
-4.94
-4.94375
-4.9475
-4.9475
-4.95125
-4.9575
-4.96375
-4.96125
-4.96
-4.96375
-4.97
-4.97125
-4.97
-4.9725
-4.975
-4.975
-4.97375
-4.96875
-4.96625
-4.97125
-4.97375
-4.97
-4.96625
-4.965
-4.96625
-4.9675
-4.96
-4.955
-4.9525
-4.955
-4.96
-4.96
-4.95375
-4.95875
-4.96
-4.9625
-4.96
-4.9575
-4.95375
-4.96
-4.96375
-4.96375
-4.965
-4.965
-4.96625
-4.9625
-4.965
-4.96125
-4.965
-4.9675
-4.97125
-4.97125
-4.96875
-4.9675
-4.96875
-4.97125
-4.96875
-4.9625
-4.96125
-4.96375
-4.97375
-4.97375
-4.97125
-4.96625
-4.97375
-4.9775
-4.97875
-4.975
-4.97375
-4.9775
-4.9825
-4.98375
-4.98125
-4.9825
-4.985
-4.98625
-4.98
-4.97625
-4.9775
-4.98125
-4.98
-4.98
-4.98
-4.98
-4.9825
-4.985
-4.98625
-4.9825
-4.9825
-4.98625
-4.9825
-4.9775
-4.97125
-4.97125
-4.97375
-4.97625
-4.975
-4.9625
-4.9575
-4.955
-4.94625
-4.9375
-4.93625
-4.93375
-4.94125
-4.94875
-4.955
-4.96
-4.9725
-4.985
-4.99
-4.9975
-5.0025
-5.0025
-5.00375
-5.0025
-4.99875
-4.99875
-5.00375
-5.005
-5.005
-4.99875
-4.995
-4.9975
-5.01
-5.01625
-5.025
-5.01875
-4.98375
-4.9075
-4.79375
-4.6625
-4.535
-4.44
-4.40875
-4.46
-4.56875
-4.69875
-4.81
-4.88375
-4.9225
-4.95125
-4.96375
-4.9775
-4.99375
-5.0075
-5.015
-5.02
-5.0225
-5.02875
-5.03
-5.0275
-5.0225
-5.02625
-5.0275
-5.02875
-5.0225
-5.01625
-5.0125
-5.01375
-5.00875
-5.00625
-5.00125
-4.99875
-5.00125
-5.00125
-4.99875
-4.9925
-4.98875
-4.98625
-4.9825
-4.97875
-4.97625
-4.97125
-4.97
-4.96375
-4.96
-4.9525
-4.95
-4.95
-4.9475
-4.93875
-4.93375
-4.92875
-4.93125
-4.93375
-4.9325
-4.93125
-4.935
-4.93625
-4.94
-4.9375
-4.93875
-4.94125
-4.94875
-4.9525
-4.95
-4.94375
-4.94
-4.95
-4.95875
-4.96
-4.9575
-4.96125
-4.96375
-4.9725
-4.98
-4.9825
-4.98875
-4.99625
-5.00125
-5.0025
-5.005
-5.01125
-5.0175
-5.02125
-5.0175
-5.01875
-5.01875
-5.02375
-5.02625
-5.02375
-5.02
-5.02
-5.0225
-5.0275
-5.02125
-5.0125
-5.01375
-5.01875
-5.02
-5.02125
-5.0125
-5.01375
-5.015
-5.015
-5.01625
-5.01625
-5.015
-5.02
-5.02
-5.01375
-5.0125
-5.01
-5.01625
-5.01625
-5.0175
-5.01625
-5.01875
-5.02
-5.02375
-5.02
-5.02
-5.02125
-5.02625
-5.02875
-5.03125
-5.03
-5.03125
-5.03125
-5.03
-5.0275
-5.0275
-5.03125
-5.0375
-5.03625
-5.03375
-5.03
-5.03375
-5.03875
-5.04
-5.03875
-5.0325
-5.0325
-5.03125
-5.0325
-5.0325
-5.0275
-5.025
-5.03
-5.035
-5.0375
-5.03
-5.02875
-5.03
-5.02875
-5.0275
-5.0275
-5.02625
-5.03
-5.035
-5.02875
-5.025
-5.02625
-5.02875
-5.03125
-5.03
-5.02375
-5.02
-5.015
-5.01125
-5.0025
-4.99125
-4.9875
-4.99
-4.99375
-5
-5.00375
-5.005
-5.0125
-5.03
-5.04
-5.04875
-5.05875
-5.06625
-5.0675
-5.06625
-5.06375
-5.0625
-5.065
-5.07
-5.07625
-5.07
-5.06875
-5.0725
-5.07625
-5.075
-5.08
-5.0825
-5.065
-5.00375
-4.89625
-4.765
-4.63125
-4.51625
-4.44625
-4.44125
-4.51125
-4.6325
-4.7675
-4.87375
-4.94375
-4.985
-5.01625
-5.03625
-5.06
-5.07375
-5.08375
-5.0925
-5.0975
-5.105
-5.11125
-5.10875
-5.1075
-5.1125
-5.11625
-5.1125
-5.10625
-5.1025
-5.1025
-5.09875
-5.09375
-5.09
-5.08625
-5.085
-5.08375
-5.085
-5.075
-5.07375
-5.075
-5.07375
-5.06625
-5.065
-5.065
-5.0675
-5.06375
-5.0575
-5.0475
-5.04375
-5.04125
-5.0375
-5.03
-5.02
-5.01625
-5.015
-5.0175
-5.01375
-5.005
-5.00125
-5.0025
-5.00375
-5
-4.99875
-5
-4.99875
-5.00125
-4.9975
-4.99375
-4.9925
-4.9975
-4.9975
-4.99625
-4.9925
-4.995
-5
-5.00875
-5.01125
-5.01375
-5.0175
-5.025
-5.02875
-5.0325
-5.03
-5.02875
-5.03375
-5.0375
-5.04125
-5.0425
-5.0375
-5.04125
-5.04
-5.04
-5.0375
-5.0375
-5.04
-5.03875
-5.035
-5.0325
-5.03
-5.03
-5.03
-5.02625
-5.02375
-5.01875
-5.0175
-5.01625
-5.015
-5.0125
-5.0175
-5.01875
-5.0225
-5.0225
-5.0175
-5.0175
-5.02
-5.02
-5.01375
-5.00875
-5.01
-5.01375
-5.0125
-5.01375
-5.01
-5.01125
-5.00875
-5.01125
-5.01375
-5.00875
-5.01125
-5.015
-5.015
-5.015
-5.00875
-5.0075
-5.01125
-5.01375
-5.0125
-5.01125
-5.00875
-5.01
-5.01
-5.01
-5.00875
-5.01125
-5.015
-5.0175
-5.01875
-5.0125
-5.005
-5.005
-5.01125
-5.0125
-5.01375
-5.01375
-5.01625
-5.01625
-5.015
-5.01125
-5.0075
-5.01125
-5.015
-5.01375
-5.0075
-5.0075
-5.01125
-5.01125
-5.00875
-5.00625
-5.0025
-5.00125
-5.00375
-5
-4.9925
-4.99125
-4.9925
-4.985
-4.97375
-4.9675
-4.965
-4.9675
-4.96625
-4.96375
-4.9625
-4.96875
-4.98
-4.99125
-5.00125
-5.00625
-5.0125
-5.0175
-5.01625
-5.015
-5.01125
-5.0125
-5.015
-5.015
-5.015
-5.01625
-5.01625
-5.02375
-5.025
-5.025
-5.025
-5.03125
-5.0325
-5.00875
-4.94375
-4.8375
-4.705
-4.57375
-4.46
-4.3825
-4.37875
-4.45125
-4.57875
-4.7125
-4.82125
-4.8825
-4.93125
-4.96375
-4.9925
-5.01375
-5.03
-5.04125
-5.05625
-5.0625
-5.07125
-5.075
-5.07875
-5.08125
-5.0825
-5.08125
-5.0775
-5.07375
-5.07375
-5.075
-5.0775
-5.07125
-5.07
-5.0625
-5.06125
-5.05875
-5.055
-5.0575
-5.05875
-5.05625
-5.04875
-5.04
-5.035
-5.03625
-5.0375
-5.03125
-5.02375
-5.02
-5.01875
-5.02
-5.01375
-5.00875
-5.0075
-5.0075
-5.005
-5.0025
-4.995
-4.9925
-4.995
-4.9975
-4.995
-4.9925
-4.99125
-5
-5.005
-5.00875
-5.005
-5.00375
-5.0075
-5.0125
-5.01375
-5.01125
-5.01375
-5.01875
-5.025
-5.0275
-5.03
-5.035
-5.04125
-5.045
-5.05125
-5.05
-5.055
-5.0625
-5.07125
-5.07
-5.07
-5.0675
-5.07
-5.07125
-5.0675
-5.0575
-5.05375
-5.05875
-5.0625
-5.0625
-5.0575
-5.055
-5.0525
-5.05
-5.05125
-5.0425
-5.03875
-5.04375
-5.045
-5.045
-5.03875
-5.03875
-5.0425
-5.0425
-5.03625
-5.03
-5.02625
-5.03375
-5.03625
-5.03125
-5.02375
-5.02625
-5.03
-5.03125
-5.0275
-5.0275
-5.03
-5.035
-5.0325
-5.03125
-5.035
-5.0375
-5.04
-5.04125
-5.0375
-5.0375
-5.0425
-5.05
-5.05375
-5.0525
-5.04125
-5.03625
-5.04
-5.04625
-5.0475
-5.045
-5.04375
-5.04375
-5.045
-5.04625
-5.03875
-5.03625
-5.04625
-5.04625
-5.0425
-5.03625
-5.03125
-5.03125
-5.0375
-5.0375
-5.0375
-5.0375
-5.03875
-5.03875
-5.0375
-5.035
-5.03375
-5.035
-5.035
-5.03125
-5.03
-5.03125
-5.03375
-5.03375
-5.025
-5.01875
-5.01625
-5.0225
-5.01875
-5.015
-5.005
-4.9975
-4.99375
-4.9875
-4.97875
-4.975
-4.9675
-4.97875
-4.99
-4.99875
-5.00625
-5.015
-5.02875
-5.035
-5.04125
-5.03375
-5.0275
-5.02875
-5.03125
-5.0275
-5.02875
-5.03
-5.03125
-5.03125
-5.03125
-5.02875
-5.0275
-5.03125
-5.04125
-5.03
-4.98375
-4.88875
-4.76625
-4.6275
-4.50125
-4.4075
-4.37875
-4.4275
-4.54
-4.66875
-4.785
-4.86
-4.905
-4.93875
-4.96
-4.97625
-4.99125
-5.00625
-5.02
-5.025
-5.02625
-5.02375
-5.02625
-5.02875
-5.03
-5.0275
-5.02625
-5.02875
-5.02625
-5.02
-5.01375
-5.015
-5.015
-5.015
-5.01
-5.0025
-4.99875
-5
-4.99875
-4.99375
-4.985
-4.9825
-4.98
-4.97875
-4.975
-4.97125
-4.96625
-4.96625
-4.9675
-4.96125
-4.95375
-4.95
-4.94875
-4.945
-4.93875
-4.9325
-4.92875
-4.9275
-4.9275
-4.92
-4.92125
-4.92
-4.92375
-4.92875
-4.9325
-4.93125
-4.93125
-4.93
-4.93625
-4.93375
-4.935
-4.93875
-4.94375
-4.94375
-4.95375
-4.95
-4.9525
-4.95875
-4.965
-4.96875
-4.97
-4.975
-4.98125
-4.98625
-4.98375
-4.98
-4.97875
-4.98125
-4.98125
-4.97875
-4.9725
-4.97
-4.975
-4.97875
-4.9725
-4.97
-4.96625
-4.96875
-4.965
-4.96125
-4.95875
-4.95875
-4.96125
-4.96
-4.955
-4.9525
-4.94875
-4.95
-4.95125
-4.945
-4.9425
-4.9425
-4.94625
-4.9525
-4.95
-4.94125
-4.9375
-4.94
-4.9425
-4.945
-4.935
-4.935
-4.93875
-4.94125
-4.945
-4.94125
-4.94125
-4.945
-4.94625
-4.94375
-4.945
-4.9425
-4.9425
-4.945
-4.94375
-4.94625
-4.95
-4.95
-4.94875
-4.94625
-4.9425
-4.94
-4.94375
-4.94875
-4.94625
-4.9425
-4.94375
-4.9475
-4.9475
-4.9425
-4.9375
-4.93375
-4.93125
-4.9325
-4.93375
-4.9325
-4.92875
-4.93375
-4.935
-4.9325
-4.92375
-4.92125
-4.925
-4.9325
-4.935
-4.925
-4.9175
-4.91375
-4.91
-4.9
-4.885
-4.885
-4.8925
-4.89625
-4.90125
-4.90625
-4.915
-4.9275
-4.9425
-4.9475
-4.9475
-4.94875
-4.95625
-4.9575
-4.955
-4.9525
-4.95375
-4.95
-4.955
-4.955
-4.9525
-4.95125
-4.96
-4.965
-4.9675
-4.975
-4.97
-4.94
-4.865
-4.7475
-4.61875
-4.49875
-4.40375
-4.365
-4.4025
-4.5
-4.63125
-4.755
-4.8325
-4.87
-4.895
-4.91375
-4.93375
-4.95125
-4.96125
-4.96625
-4.97
-4.975
-4.97625
-4.97875
-4.9775
-4.97875
-4.97625
-4.97375
-4.96625
-4.965
-4.96125
-4.96125
-4.96125
-4.95875
-4.9575
-4.9575
-4.95875
-4.9575
-4.95125
-4.94125
-4.9325
-4.9325
-4.93125
-4.9325
-4.92875
-4.9225
-4.92375
-4.925
-4.92125
-4.91
-4.905
-4.90375
-4.9025
-4.8925
-4.885
-4.88375
-4.88625
-4.885
-4.88625
-4.875
-4.875
-4.87875
-4.88375
-4.87875
-4.87625
-4.87875
-4.88125
-4.88375
-4.88875
-4.89125
-4.89625
-4.89875
-4.90125
-4.8975
-4.89625
-4.9025
-4.9075
-4.9125
-4.91625
-4.9225
-4.925
-4.93375
-4.935
-4.9375
-4.93625
-4.94125
-4.94875
-4.95125
-4.94625
-4.95
-4.94875
-4.94875
-4.94875
-4.94875
-4.9475
-4.94625
-4.94375
-4.94375
-4.945
-4.93875
-4.9375
-4.93875
-4.9425
-4.94125
-4.93
-4.92875
-4.93125
-4.93375
-4.9325
-4.92875
-4.925
-4.93
-4.93
-4.92625
-4.92875
-4.92875
-4.9325
-4.935
-4.935
-4.935
-4.935
-4.9325
-4.935
-4.93125
-4.9275
-4.93
-4.935
-4.94
-4.94
-4.93875
-4.94375
-4.94875
-4.9525
-4.94875
-4.945
-4.95
-4.9525
-4.95125
-4.95
-4.945
-4.9425
-4.94625
-4.94875
-4.94625
-4.93875
-4.94375
-4.94875
-4.95375
-4.95625
-4.94875
-4.94875
-4.9575
-4.9575
-4.955
-4.95
-4.95125
-4.95
-4.95
-4.95
-4.94625
-4.94625
-4.9475
-4.94875
-4.945
-4.93875
-4.93875
-4.93875
-4.94
-4.93875
-4.93625
-4.93375
-4.925
-4.91875
-4.91
-4.9025
-4.895
-4.89625
-4.8975
-4.89625
-4.8975
-4.90625
-4.91875
-4.93125
-4.94375
-4.94875
-4.95
-4.95875
-4.96125
-4.9625
-4.96
-4.95875
-4.96
-4.96125
-4.9625
-4.95625
-4.955
-4.96
-4.96125
-4.95875
-4.95875
-4.9675
-4.96875
-4.93625
-4.85625
-4.7375
-4.60375
-4.47625
-4.375
-4.31625
-4.34125
-4.435
-4.57375
-4.7
-4.7925
-4.85
-4.89375
-4.925
-4.94875
-4.965
-4.9775
-4.9875
-4.9975
-5.00625
-5.00875
-5.00875
-5.0075
-5.0075
-5.0075
-5.005
-5
-5.00125
-5.00375
-4.99875
-4.99125
-4.99
-4.99
-4.99125
-4.9875
-4.98875
-4.97625
-4.97375
-4.975
-4.97125
-4.96375
-4.96375
-4.96125
-4.9625
-4.95625
-4.9525
-4.94125
-4.935
-4.93375
-4.9325
-4.92875
-4.925
-4.9225
-4.925
-4.92375
-4.91875
-4.91375
-4.91375
-4.91875
-4.9225
-4.92
-4.91375
-4.9175
-4.92
-4.92625
-4.92875
-4.92875
-4.92875
-4.935
-4.9375
-4.93875
-4.93875
-4.94375
-4.94875
-4.955
-4.9575
-4.9625
-4.9675
-4.97375
-4.98125
-4.99
-4.98875
-4.995
-5
-5.00375
-5
-4.99875
-5.0025
-5.005
-5.005
-5.00125
-4.995
-4.995
-4.9975
-4.99625
-4.995
-4.98875
-4.99125
-4.99625
-5
-4.99375
-4.9925
-4.995
-4.99625
-4.99375
-4.99
-4.985
-4.9875
-4.98875
-4.99
-4.99125
-4.985
-4.98125
-4.9825
-4.985
-4.98125
-4.97875
-4.98375
-4.9875
-4.9875
-4.985
-4.98125
-4.98
-4.98375
-4.98625
-4.98875
-4.9825
-4.98
-4.98625
-4.98875
-4.98875
-4.985
-4.98375
-4.98375
-4.9875
-4.985
-4.985
-4.9825
-4.98625
-4.985
-4.98
-4.9775
-4.9775
-4.9825
-4.98625
-4.98
-4.97625
-4.97125
-4.97125
-4.97125
-4.97
-4.97375
-4.975
-4.97875
-4.97875
-4.97375
-4.965
-4.965
-4.96625
-4.96625
-4.9625
-4.95875
-4.96
-4.96125
-4.95625
-4.95375
-4.9525
-4.95375
-4.95625
-4.9625
-4.96375
-4.95625
-4.94875
-4.94
-4.935
-4.92625
-4.915
-4.91
-4.9125
-4.9125
-4.91375
-4.915
-4.915
-4.92875
-4.94625
-4.9525
-4.95625
-4.96
-4.9675
-4.96875
-4.96625
-4.96375
-4.96625
-4.965
-4.97125
-4.96625
-4.96375
-4.96
-4.9625
-4.965
-4.96875
-4.97125
-4.9775
-4.97
-4.9225
-4.83
-4.7025
-4.56875
-4.44875
-4.35
-4.3075
-4.345
-4.45625
-4.6
-4.72
-4.80125
-4.84875
-4.88375
-4.91125
-4.935
-4.95375
-4.9675
-4.975
-4.985
-4.9875
-4.99375
-4.99125
-4.9875
-4.98625
-4.985
-4.98375
-4.98375
-4.98125
-4.97875
-4.97375
-4.96875
-4.96625
-4.965
-4.97
-4.9625
-4.95125
-4.9475
-4.95125
-4.9525
-4.9525
-4.94875
-4.94375
-4.94
-4.9375
-4.93625
-4.93375
-4.9225
-4.9175
-4.9125
-4.90625
-4.89625
-4.89375
-4.89375
-4.89375
-4.88625
-4.8925
-4.88375
-4.88375
-4.88625
-4.885
-4.88375
-4.8825
-4.88375
-4.88875
-4.89375
-4.89375
-4.89375
-4.89375
-4.89875
-4.9025
-4.90375
-4.89875
-4.90125
-4.9125
-4.92
-4.92
-4.92375
-4.92875
-4.9425
-4.9425
-4.9475
-4.95125
-4.9575
-4.9625
-4.96375
-4.96125
-4.96125
-4.9625
-4.9675
-4.96375
-4.96
-4.95375
-4.9575
-4.965
-4.96625
-4.96375
-4.96
-4.95375
-4.9525
-4.95
-4.9525
-4.945
-4.94625
-4.95
-4.95125
-4.94875
-4.94
-4.9425
-4.9475
-4.94875
-4.945
-4.9425
-4.94375
-4.945
-4.94625
-4.94625
-4.9425
-4.9425
-4.9425
-4.94125
-4.94125
-4.93875
-4.94125
-4.94375
-4.94625
-4.94125
-4.94
-4.94625
-4.94875
-4.95
-4.95
-4.945
-4.9425
-4.94625
-4.95
-4.95
-4.94875
-4.945
-4.9425
-4.94625
-4.9475
-4.94
-4.94
-4.9475
-4.955
-4.95125
-4.94875
-4.94875
-4.9525
-4.94875
-4.94375
-4.94
-4.94375
-4.94625
-4.9475
-4.94375
-4.9375
-4.93625
-4.94125
-4.94375
-4.94125
-4.94125
-4.94125
-4.94375
-4.94375
-4.94125
-4.94
-4.94
-4.945
-4.94125
-4.9375
-4.93375
-4.93
-4.93
-4.92375
-4.9175
-4.90375
-4.8925
-4.8925
-4.88875
-4.8825
-4.87875
-4.88
-4.885
-4.88375
-4.88875
-4.9
-4.9125
-4.925
-4.93125
-4.93875
-4.93
-4.92875
-4.93375
-4.93625
-4.93625
-4.9325
-4.93
-4.93
-4.93125
-4.93
-4.92125
-4.92375
-4.92875
-4.94
-4.9425
-4.91875
-4.85625
-4.75
-4.61875
-4.48875
-4.37125
-4.29375
-4.29875
-4.38125
-4.5075
-4.63625
-4.73875
-4.8025
-4.845
-4.87375
-4.89375
-4.90875
-4.92375
-4.93625
-4.9425
-4.94625
-4.9475
-4.9475
-4.95125
-4.94875
-4.95
-4.94875
-4.9475
-4.945
-4.9475
-4.94
-4.93875
-4.93875
-4.94125
-4.93875
-4.9325
-4.92625
-4.92625
-4.925
-4.92125
-4.91375
-4.90875
-4.90625
-4.90625
-4.9
-4.89375
-4.8925
-4.8875
-4.88375
-4.87875
-4.8725
-4.87
-4.86875
-4.86625
-4.8625
-4.85875
-4.855
-4.86
-4.8625
-4.85625
-4.85625
-4.8575
-4.86625
-4.86625
-4.8725
-4.87
-4.8725
-4.8775
-4.8775
-4.87875
-4.87625
-4.87875
-4.8875
-4.895
-4.90125
-4.8975
-4.9
-4.90625
-4.91
-4.9125
-4.9175
-4.925
-4.935
-4.94375
-4.94625
-4.9475
-4.95125
-4.95375
-4.9525
-4.95375
-4.94625
-4.945
-4.94375
-4.94875
-4.9475
-4.9475
-4.945
-4.945
-4.93875
-4.935
-4.93
-4.93
-4.9275
-4.92875
-4.93125
-4.93375
-4.93375
-4.9375
-4.94
-4.9375
-4.935
-4.93375
-4.93375
-4.92875
-4.93
-4.92875
-4.9325
-4.93625
-4.93875
-4.93625
-4.9325
-4.93125
-4.94125
-4.9475
-4.94375
-4.9325
-4.9325
-4.9375
-4.94
-4.93875
-4.93875
-4.9375
-4.94375
-4.945
-4.94
-4.9325
-4.935
-4.9375
-4.9375
-4.93375
-4.93375
-4.94125
-4.94
-4.93625
-4.93375
-4.9325
-4.935
-4.94125
-4.9375
-4.93125
-4.92
-4.92
-4.92625
-4.9275
-4.925
-4.92
-4.915
-4.91625
-4.9175
-4.91375
-4.905
-4.8975
-4.89375
-4.88375
-4.8775
-4.8675
-4.865
-4.87
-4.87375
-4.875
-4.8825
-4.89375
-4.90625
-4.915
-4.9175
-4.9175
-4.92125
-4.92625
-4.9275
-4.925
-4.925
-4.92625
-4.92875
-4.93
-4.92625
-4.92125
-4.92625
-4.9275
-4.93
-4.935
-4.94125
-4.93
-4.88875
-4.805
-4.685
-4.55125
-4.4325
-4.34875
-4.335
-4.39125
-4.5
-4.63375
-4.74625
-4.8175
-4.85375
-4.8775
-4.89625
-4.9125
-4.92625
-4.94
-4.94
-4.94625
-4.9525
-4.95625
-4.95625
-4.955
-4.955
-4.9575
-4.95375
-4.9525
-4.9475
-4.9475
-4.95
-4.95
-4.9425
-4.9375
-4.93875
-4.94125
-4.94125
-4.93125
-4.9275
-4.9275
-4.92875
-4.92625
-4.92125
-4.915
-4.90625
-4.905
-4.90375
-4.90125
-4.89625
-4.8925
-4.8925
-4.89
-4.8825
-4.87125
-4.87125
-4.87125
-4.87625
-4.87125
-4.875
-4.87125
-4.87375
-4.8775
-4.885
-4.875
-4.8725
-4.87875
-4.8875
-4.89
-4.89125
-4.89875
-4.9025
-4.90375
-4.905
-4.9075
-4.91125
-4.9175
-4.92125
-4.925
-4.93
-4.935
-4.945
-4.955
-4.955
-4.95625
-4.95625
-4.96
-4.96375
-4.96875
-4.96125
-4.9625
-4.965
-4.9675
-4.96625
-4.965
-4.965
-4.965
-4.96625
-4.9625
-4.96
-4.96
-4.96375
-4.9625
-4.95625
-4.95
-4.95
-4.95
-4.94625
-4.94125
-4.94125
-4.9475
-4.95125
-4.95125
-4.9475
-4.945
-4.95
-4.95375
-4.95625
-4.9525
-4.9525
-4.95
-4.9525
-4.9525
-4.94625
-4.9425
-4.9475
-4.95625
-4.9625
-4.9625
-4.96
-4.965
-4.9675
-4.965
-4.9625
-4.9625
-4.96625
-4.9725
-4.97125
-4.96875
-4.9625
-4.9625
-4.9625
-4.9625
-4.96125
-4.96
-4.95875
-4.96125
-4.9575
-4.95875
-4.9575
-4.95875
-4.96125
-4.96375
-4.96125
-4.95125
-4.94875
-4.95125
-4.95375
-4.95
-4.94625
-4.9475
-4.94875
-4.94125
-4.93
-4.92
-4.90875
-4.9025
-4.895
-4.8875
-4.88125
-4.885
-4.895
-4.90125
-4.91125
-4.91875
-4.92625
-4.92625
-4.93125
-4.9275
-4.92625
-4.92875
-4.935
-4.93375
-4.93125
-4.9275
-4.92875
-4.92625
-4.925
-4.91875
-4.91625
-4.925
-4.93
-4.935
-4.91875
-4.87
-4.7775
-4.66
-4.525
-4.39625
-4.2975
-4.2625
-4.30875
-4.41875
-4.54875
-4.66125
-4.74625
-4.79625
-4.8275
-4.85
-4.8675
-4.885
-4.90125
-4.9125
-4.9125
-4.9125
-4.91625
-4.925
-4.9275
-4.925
-4.9225
-4.92
-4.91875
-4.9175
-4.91125
-4.9075
-4.9075
-4.90875
-4.9075
-4.8975
-4.89375
-4.89375
-4.89
-4.885
-4.88125
-4.87375
-4.87625
-4.87625
-4.87
-4.86375
-4.86125
-4.8575
-4.85875
-4.85125
-4.85125
-4.8425
-4.83875
-4.8425
-4.845
-4.84
-4.83375
-4.83125
-4.83375
-4.8375
-4.8375
-4.83875
-4.8425
-4.84875
-4.8525
-4.8525
-4.8525
-4.85875
-4.865
-4.87125
-4.8675
-4.86875
-4.87
-4.875
-4.88
-4.88625
-4.8875
-4.8975
-4.905
-4.9075
-4.9075
-4.92
-4.92875
-4.93875
-4.9375
-4.94
-4.9425
-4.94625
-4.955
-4.95375
-4.94875
-4.94875
-4.95125
-4.95125
-4.95
-4.95125
-4.9475
-4.94875
-4.95125
-4.95
-4.94625
-4.94375
-4.9425
-4.94375
-4.94375
-4.94125
-4.9425
-4.94125
-4.94625
-4.94375
-4.93625
-4.935
-4.9425
-4.9475
-4.95125
-4.95
-4.94875
-4.94875
-4.95125
-4.95375
-4.9525
-4.95375
-4.96
-4.96375
-4.96
-4.95375
-4.9525
-4.95
-4.9525
-4.9525
-4.95
-4.9475
-4.9525
-4.9575
-4.955
-4.95125
-4.9475
-4.94875
-4.95125
-4.95625
-4.9575
-4.94875
-4.9475
-4.955
-4.95375
-4.9525
-4.945
-4.94375
-4.94625
-4.945
-4.94375
-4.945
-4.94625
-4.95
-4.95125
-4.945
-4.94
-4.94125
-4.94125
-4.94
-4.93625
-4.92875
-4.9275
-4.93375
-4.935
-4.93
-4.9275
-4.92375
-4.92
-4.91
-4.89625
-4.885
-4.8925
-4.8975
-4.9
-4.8975
-4.89875
-4.91
-4.925
-4.935
-4.93875
-4.93875
-4.94125
-4.94625
-4.95
-4.9525
-4.945
-4.9475
-4.9475
-4.9475
-4.94125
-4.94125
-4.94625
-4.95
-4.95375
-4.95375
-4.95875
-4.9575
-4.925
-4.84875
-4.735
-4.60375
-4.475
-4.37375
-4.32125
-4.3525
-4.45375
-4.60125
-4.7425
-4.84625
-4.9075
-4.95125
-4.98
-5.005
-5.025
-5.03875
-5.04625
-5.0525
-5.05875
-5.06
-5.05625
-5.0525
-5.055
-5.0575
-5.05375
-5.045
-5.0425
-5.04375
-5.04625
-5.045
-5.04625
-5.03875
-5.03875
-5.03875
-5.03625
-5.02875
-5.025
-5.02375
-5.025
-5.02125
-5.01625
-5.00875
-5.01
-5.00875
-5.005
-4.995
-4.98375
-4.9825
-4.98375
-4.97875
-4.9775
-4.97625
-4.97125
-4.965
-4.96125
-4.955
-4.9525
-4.95375
-4.9575
-4.95875
-4.95625
-4.95625
-4.95875
-4.965
-4.965
-4.96375
-4.9625
-4.96625
-4.9725
-4.9775
-4.97625
-4.97875
-4.98
-4.98625
-4.9925
-4.9975
-4.99625
-5.00125
-5.0075
-5.00875
-5.01
-5.01375
-5.01875
-5.02
-5.02
-5.0175
-5.02
-5.02375
-5.025
-5.02375
-5.02
-5.01625
-5.015
-5.01125
-5.01
-5.005
-5.00375
-5.00625
-5.005
-5.00375
-5.005
-5
-5.0025
-5.0025
-5
-4.995
-4.98875
-4.99
-4.9925
-4.99625
-4.9925
-4.99
-4.99
-4.99
-4.9875
-4.98125
-4.98
-4.98
-4.97625
-4.9725
-4.97375
-4.965
-4.96375
-4.96625
-4.96375
-4.95625
-4.95
-4.95625
-4.9575
-4.95875
-4.95375
-4.95375
-4.9525
-4.95375
-4.95125
-4.9525
-4.9525
-4.955
-4.95875
-4.9575
-4.95
-4.945
-4.94625
-4.94625
-4.9425
-4.93875
-4.93375
-4.93625
-4.94
-4.93875
-4.93375
-4.92875
-4.93375
-4.93875
-4.94
-4.93125
-4.92
-4.9075
-4.90125
-4.8875
-4.875
-4.86375
-4.86
-4.855
-4.8525
-4.85125
-4.84125
-4.84
-4.83625
-4.82375
-4.8125
-4.80375
-4.80125
-4.80625
-4.80625
-4.805
-4.81125
-4.8225
-4.835
-4.845
-4.84875
-4.84875
-4.85125
-4.8525
-4.85875
-4.8625
-4.86125
-4.865
-4.87125
-4.86875
-4.8625
-4.8625
-4.8625
-4.8675
-4.86875
-4.86875
-4.8725
-4.86875
-4.83625
-4.7575
-4.63875
-4.5025
-4.37375
-4.27375
-4.225
-4.25625
-4.3575
-4.49875
-4.6275
-4.71
-4.76625
-4.7925
-4.815
-4.83375
-4.85
-4.85875
-4.8675
-4.8725
-4.8775
-4.8825
-4.88125
-4.88
-4.88375
-4.88375
-4.88375
-4.87625
-4.8725
-4.87375
-4.87125
-4.87
-4.8675
-4.865
-4.865
-4.86375
-4.85875
-4.8525
-4.85125
-4.85
-4.84125
-4.8375
-4.83
-4.83
-4.83125
-4.8275
-4.8225
-4.81625
-4.80875
-4.8075
-4.80625
-4.8075
-4.8
-4.79625
-4.79125
-4.7925
-4.7875
-4.7875
-4.77875
-4.78125
-4.78375
-4.78375
-4.78375
-4.78625
-4.7925
-4.79625
-4.79625
-4.795
-4.79875
-4.8075
-4.81125
-4.80875
-4.81125
-4.8125
-4.815
-4.82
-4.82125
-4.82375
-4.8275
-4.83375
-4.84375
-4.84875
-4.85
-4.84875
-4.855
-4.85875
-4.86625
-4.86125
-4.8575
-4.85625
-4.86
-4.86125
-4.86
-4.85375
-4.855
-4.86
-4.86
-4.85625
-4.85
-4.8475
-4.8475
-4.84625
-4.84625
-4.84125
-4.8425
-4.845
-4.845
-4.84125
-4.8375
-4.83875
-4.84
-4.84125
-4.835
-4.83625
-4.8375
-4.84125
-4.84375
-4.8425
-4.84125
-4.8475
-4.84875
-4.84625
-4.84
-4.8375
-4.84
-4.84125
-4.8425
-4.83875
-4.83875
-4.84875
-4.85
-4.84375
-4.83875
-4.8375
-4.8375
-4.8375
-4.83625
-4.83
-4.82375
-4.8175
-4.81375
-4.81
-4.80125
-4.79625
-4.795
-4.79
-4.785
-4.78
-4.77125
-4.77
-4.76875
-4.75875
-4.74875
-4.745
-4.74875
-4.75125
-4.75
-4.7475
-4.74
-4.73
-4.72125
-4.7125
-4.70375
-4.7025
-4.7025
-4.70375
-4.7075
-4.71125
-4.72125
-4.73625
-4.7475
-4.755
-4.7575
-4.76125
-4.76375
-4.765
-4.76375
-4.76125
-4.7575
-4.76125
-4.76625
-4.76875
-4.76375
-4.76375
-4.7625
-4.76625
-4.7775
-4.79
-4.79625
-4.77375
-4.71
-4.60125
-4.48
-4.3475
-4.24375
-4.19125
-4.21375
-4.3
-4.43
-4.5575
-4.64625
-4.6975
-4.73125
-4.755
-4.775
-4.7875
-4.8025
-4.815
-4.825
-4.83375
-4.84125
-4.83875
-4.83625
-4.8375
-4.84
-4.8425
-4.84125
-4.8425
-4.84375
-4.84625
-4.845
-4.84
-4.835
-4.83375
-4.83625
-4.8375
-4.835
-4.83375
-4.83
-4.82625
-4.825
-4.82125
-4.815
-4.8125
-4.805
-4.80625
-4.80125
-4.7975
-4.795
-4.7925
-4.7875
-4.78625
-4.78125
-4.78
-4.78
-4.78
-4.77875
-4.7775
-4.775
-4.78125
-4.785
-4.78625
-4.785
-4.78625
-4.79125
-4.79375
-4.795
-4.7925
-4.8
-4.8025
-4.80875
-4.8075
-4.80375
-4.805
-4.81125
-4.8175
-4.8225
-4.82375
-4.83125
-4.84
-4.85125
-4.85375
-4.86
-4.8625
-4.87
-4.87
-4.87125
-4.86875
-4.8675
-4.87625
-4.87875
-4.875
-4.87375
-4.86375
-4.86625
-4.8675
-4.865
-4.86375
-4.8625
-4.865
-4.86375
-4.85875
-4.8525
-4.85125
-4.85625
-4.8625
-4.865
-4.86625
-4.8675
-4.86875
-4.87
-4.87125
-4.86625
-4.86875
-4.87
-4.87375
-4.8725
-4.87
-4.87
-4.87625
-4.88125
-4.87625
-4.87375
-4.875
-4.88375
-4.88875
-4.89375
-4.89
-4.89125
-4.8975
-4.9025
-4.90125
-4.89875
-4.90125
-4.9075
-4.9125
-4.91375
-4.9125
-4.90875
-4.9125
-4.91375
-4.91125
-4.91125
-4.90625
-4.90875
-4.9125
-4.9125
-4.9075
-4.91
-4.91125
-4.9125
-4.90875
-4.90375
-4.9
-4.90875
-4.91
-4.9075
-4.8975
-4.88875
-4.8875
-4.88125
-4.87375
-4.8675
-4.865
-4.8675
-4.87
-4.88
-4.885
-4.89375
-4.90625
-4.915
-4.925
-4.92375
-4.92875
-4.9325
-4.93625
-4.93125
-4.92875
-4.925
-4.93
-4.93625
-4.935
-4.93625
-4.93125
-4.93625
-4.9425
-4.94875
-4.95375
-4.94375
-4.9
-4.81125
-4.67875
-4.53625
-4.40875
-4.315
-4.27625
-4.3175
-4.42625
-4.565
-4.69125
-4.7775
-4.82375
-4.85125
-4.87375
-4.90125
-4.91875
-4.93375
-4.9375
-4.94125
-4.94375
-4.95125
-4.95
-4.9525
-4.95375
-4.95125
-4.95375
-4.95125
-4.94875
-4.9475
-4.94625
-4.94875
-4.9425
-4.93375
-4.9275
-4.92625
-4.92625
-4.92625
-4.9225
-4.915
-4.915
-4.9125
-4.9125
-4.9075
-4.9025
-4.89625
-4.89125
-4.8825
-4.87625
-4.87125
-4.87125
-4.8675
-4.8625
-4.85625
-4.85125
-4.85375
-4.8525
-4.84375
-4.83375
-4.83
-4.83625
-4.8375
-4.835
-4.83125
-4.83375
-4.835
-4.83375
-4.83875
-4.84125
-4.84375
-4.84875
-4.855
-4.8575
-4.85875
-4.86625
-4.8725
-4.8775
-4.88
-4.88
-4.88875
-4.8975
-4.9075
-4.9125
-4.91625
-4.91125
-4.92125
-4.925
-4.925
-4.9225
-4.9225
-4.925
-4.92625
-4.92125
-4.9225
-4.92
-4.92
-4.91875
-4.915
-4.91125
-4.91875
-4.9375
-4.95125
-4.9625
-4.9675
-4.97875
-4.985
-4.99125
-4.99
-4.98625
-4.9825
-4.985
-4.99125
-4.99125
-4.9875
-4.99
-4.9925
-4.995
-4.99375
-4.9925
-4.9875
-4.9875
-4.99125
-4.98625
-4.98625
-4.99375
-4.99625
-4.99375
-4.9975
-4.9975
-4.99125
-4.99
-4.99
-4.99125
-4.99
-4.98875
-4.99375
-4.99375
-4.98875
-4.98375
-4.98375
-4.98375
-4.9875
-4.98625
-4.98125
-4.9775
-4.9825
-4.98375
-4.9825
-4.97625
-4.975
-4.9775
-4.98
-4.97875
-4.97625
-4.9775
-4.98
-4.9775
-4.97375
-4.97125
-4.96875
-4.9675
-4.9625
-4.9625
-4.9625
-4.96125
-4.95875
-4.95
-4.9375
-4.92625
-4.92125
-4.91875
-4.92
-4.92125
-4.925
-4.9275
-4.9375
-4.94375
-4.95375
-4.9625
-4.97125
-4.98
-4.985
-4.98375
-4.98
-4.975
-4.98125
-4.9875
-4.98625
-4.98625
-4.9875
-4.98625
-4.98625
-4.98625
-4.985
-4.99125
-4.9975
-4.98125
-4.92375
-4.81875
-4.69
-4.55625
-4.4325
-4.33625
-4.31125
-4.3625
-4.48625
-4.625
-4.7425
-4.82
-4.8675
-4.905
-4.93
-4.9475
-4.965
-4.975
-4.98125
-4.985
-4.99
-4.99375
-4.995
-4.9975
-5
-4.9975
-4.9925
-4.99625
-4.9925
-4.98875
-4.98375
-4.98
-4.975
-4.97875
-4.975
-4.9725
-4.9625
-4.96125
-4.9575
-4.95875
-4.9575
-4.95875
-4.9525
-4.9525
-4.94875
-4.9425
-4.9325
-4.9275
-4.92625
-4.92125
-4.91375
-4.9075
-4.90875
-4.90875
-4.90375
-4.9
-4.8975
-4.89875
-4.89625
-4.895
-4.89125
-4.88875
-4.8975
-4.9025
-4.905
-4.9
-4.90125
-4.8925
-4.89625
-4.89875
-4.90125
-4.90125
-4.905
-4.90875
-4.90875
-4.90875
-4.90875
-4.9125
-4.91
-4.91625
-4.92375
-4.92625
-4.93
-4.935
-4.94125
-4.94125
-4.93625
-4.93875
-4.945
-4.94625
-4.94375
-4.94
-4.94125
-4.94625
-4.9475
-4.94375
-4.93625
-4.9325
-4.93
-4.93
-4.92375
-4.92375
-4.9225
-4.92375
-4.9225
-4.91875
-4.9175
-4.91875
-4.92125
-4.92125
-4.92125
-4.92375
-4.92125
-4.925
-4.92375
-4.91875
-4.915
-4.9175
-4.9175
-4.91625
-4.9175
-4.91625
-4.9175
-4.91375
-4.91125
-4.9125
-4.9125
-4.91625
-4.91625
-4.91375
-4.9125
-4.90875
-4.90875
-4.9125
-4.91875
-4.91625
-4.91625
-4.91875
-4.92125
-4.92
-4.915
-4.91625
-4.9175
-4.92375
-4.92875
-4.92125
-4.915
-4.915
-4.9225
-4.92375
-4.92125
-4.91875
-4.915
-4.915
-4.915
-4.91625
-4.9125
-4.905
-4.9075
-4.9125
-4.91
-4.905
-4.9025
-4.905
-4.89875
-4.895
-4.8925
-4.88875
-4.88
-4.87
-4.86
-4.84875
-4.8475
-4.85
-4.85125
-4.8525
-4.85625
-4.865
-4.875
-4.885
-4.8925
-4.9
-4.9075
-4.91125
-4.915
-4.91375
-4.9125
-4.9125
-4.91375
-4.9125
-4.91
-4.9075
-4.91375
-4.9175
-4.92125
-4.91875
-4.91875
-4.92375
-4.92375
-4.8875
-4.80125
-4.6725
-4.535
-4.41
-4.315
-4.28125
-4.32875
-4.44375
-4.5775
-4.69625
-4.7725
-4.815
-4.84375
-4.86875
-4.8875
-4.9025
-4.91125
-4.925
-4.93125
-4.9325
-4.92625
-4.9275
-4.935
-4.94
-4.93625
-4.9325
-4.9275
-4.92875
-4.92875
-4.9325
-4.925
-4.91875
-4.915
-4.91375
-4.9125
-4.9125
-4.91
-4.9075
-4.90375
-4.90125
-4.89625
-4.89125
-4.89
-4.8925
-4.88375
-4.875
-4.87375
-4.8675
-4.87
-4.8675
-4.86375
-4.85875
-4.86125
-4.86
-4.85625
-4.84875
-4.8425
-4.8425
-4.8475
-4.84875
-4.85
-4.855
-4.86
-4.865
-4.86875
-4.8675
-4.86875
-4.87375
-4.8725
-4.87375
-4.8725
-4.875
-4.87375
-4.87875
-4.885
-4.88875
-4.88875
-4.89625
-4.90125
-4.90875
-4.91125
-4.91875
-4.9275
-4.93125
-4.9325
-4.935
-4.935
-4.94
-4.93875
-4.9375
-4.935
-4.93625
-4.9325
-4.93375
-4.93
-4.925
-4.925
-4.92375
-4.9275
-4.92875
-4.92375
-4.92125
-4.9175
-4.91625
-4.9125
-4.91
-4.9075
-4.91125
-4.9175
-4.91875
-4.9175
-4.91
-4.91
-4.91
-4.9125
-4.91
-4.91
-4.91
-4.91
-4.9125
-4.90875
-4.905
-4.90625
-4.90875
-4.90875
-4.9125
-4.91125
-4.91
-4.91125
-4.915
-4.91875
-4.92125
-4.92
-4.92125
-4.9175
-4.915
-4.91625
-4.9125
-4.91625
-4.91875
-4.915
-4.915
-4.91
-4.90875
-4.90875
-4.91
-4.90875
-4.90875
-4.91
-4.91
-4.90625
-4.91
-4.91
-4.91125
-4.90875
-4.9025
-4.8975
-4.89625
-4.89625
-4.89375
-4.89625
-4.89375
-4.89125
-4.88
-4.87
-4.865
-4.8575
-4.8525
-4.85625
-4.855
-4.855
-4.8525
-4.86125
-4.8725
-4.8875
-4.895
-4.9
-4.90625
-4.90875
-4.91125
-4.9075
-4.90625
-4.91
-4.90875
-4.9075
-4.90625
-4.9025
-4.905
-4.9075
-4.90875
-4.90875
-4.9075
-4.91625
-4.91375
-4.87375
-4.7875
-4.66625
-4.53375
-4.41
-4.3125
-4.27375
-4.32
-4.4225
-4.56125
-4.675
-4.74875
-4.79125
-4.825
-4.845
-4.8625
-4.87375
-4.89
-4.90125
-4.91125
-4.915
-4.91375
-4.9125
-4.91625
-4.91875
-4.91625
-4.91125
-4.91
-4.9075
-4.90625
-4.90375
-4.8975
-4.9025
-4.895
-4.89625
-4.89125
-4.88375
-4.87875
-4.87625
-4.87625
-4.87625
-4.87
-4.8675
-4.8625
-4.86375
-4.86
-4.85375
-4.8475
-4.845
-4.84125
-4.8375
-4.83
-4.825
-4.81875
-4.81375
-4.81125
-4.80625
-4.80375
-4.80375
-4.80875
-4.815
-4.815
-4.8175
-4.82
-4.82375
-4.8275
-4.82375
-4.8225
-4.825
-4.82875
-4.83
-4.8275
-4.83125
-4.84125
-4.845
-4.845
-4.8425
-4.85125
-4.84875
-4.85625
-4.85875
-4.86375
-4.87
-4.87625
-4.8825
-4.885
-4.88125
-4.88
-4.88125
-4.88
-4.88125
-4.87625
-4.87375
-4.87625
-4.88
-4.8775
-4.87625
-4.8675
-4.86375
-4.86375
-4.86375
-4.85875
-4.85625
-4.855
-4.85625
-4.8525
-4.85125
-4.8475
-4.84875
-4.85125
-4.8525
-4.84875
-4.84625
-4.8475
-4.85125
-4.8525
-4.84875
-4.845
-4.845
-4.84625
-4.8425
-4.8375
-4.84125
-4.84
-4.8425
-4.84375
-4.84125
-4.83875
-4.83875
-4.84
-4.83875
-4.83875
-4.8375
-4.835
-4.83375
-4.835
-4.82625
-4.8225
-4.8225
-4.8275
-4.82625
-4.825
-4.82125
-4.825
-4.82625
-4.82625
-4.82125
-4.8125
-4.81125
-4.815
-4.81625
-4.81625
-4.81375
-4.81375
-4.815
-4.815
-4.8125
-4.80875
-4.81125
-4.81125
-4.80875
-4.8025
-4.7975
-4.79625
-4.7975
-4.79625
-4.79
-4.7875
-4.78875
-4.78375
-4.775
-4.76375
-4.75625
-4.75
-4.74875
-4.7475
-4.745
-4.745
-4.7525
-4.76375
-4.77375
-4.77875
-4.78375
-4.78875
-4.79375
-4.79625
-4.79125
-4.79125
-4.7925
-4.8
-4.80125
-4.795
-4.79125
-4.79125
-4.78875
-4.79
-4.78375
-4.785
-4.795
-4.80375
-4.78625
-4.7325
-4.6275
-4.505
-4.375
-4.2525
-4.15625
-4.12625
-4.1775
-4.29375
-4.42875
-4.54375
-4.6275
-4.67375
-4.70625
-4.72625
-4.7425
-4.75875
-4.7725
-4.785
-4.79375
-4.7925
-4.79625
-4.795
-4.79625
-4.795
-4.79625
-4.79625
-4.80125
-4.80125
-4.79625
-4.7875
-4.78625
-4.78625
-4.79
-4.78375
-4.77625
-4.76875
-4.76625
-4.7675
-4.76375
-4.7575
-4.75375
-4.75125
-4.75
-4.7475
-4.73875
-4.7325
-4.73125
-4.7275
-4.72375
-4.7175
-4.71125
-4.7075
-4.705
-4.7
-4.6925
-4.695
-4.69
-4.6925
-4.6925
-4.69375
-4.69375
-4.6975
-4.70125
-4.70625
-4.70875
-4.71625
-4.7225
-4.73
-4.735
-4.73375
-4.73875
-4.7475
-4.75375
-4.75625
-4.76125
-4.76875
-4.7775
-4.785
-4.78625
-4.78625
-4.79125
-4.79625
-4.80375
-4.80625
-4.80125
-4.80375
-4.81375
-4.82125
-4.82125
-4.81125
-4.81375
-4.8175
-4.8225
-4.8225
-4.82125
-4.815
-4.815
-4.81125
-4.81
-4.805
-4.805
-4.8075
-4.8125
-4.81125
-4.8075
-4.8075
-4.80875
-4.80875
-4.80625
-4.80125
-4.80125
-4.8075
-4.81125
-4.81125
-4.80875
-4.81
-4.81
-4.81625
-4.81625
-4.8175
-4.82125
-4.825
-4.82875
-4.82625
-4.82375
-4.82875
-4.83625
-4.84375
-4.8525
-4.855
-4.855
-4.86125
-4.87
-4.87125
-4.86875
-4.87125
-4.8775
-4.88625
-4.89125
-4.8925
-4.89375
-4.8975
-4.90375
-4.9125
-4.91375
-4.9175
-4.9225
-4.92625
-4.92625
-4.9225
-4.92625
-4.93
-4.9325
-4.93125
-4.92875
-4.925
-4.92375
-4.925
-4.92625
-4.92125
-4.91875
-4.91375
-4.915
-4.91125
-4.90375
-4.89875
-4.90125
-4.9075
-4.9075
-4.8975
-4.88625
-4.87625
-4.8625
-4.855
-4.84875
-4.8475
-4.85
-4.85625
-4.86125
-4.86875
-4.88
-4.895
-4.90125
-4.905
-4.89875
-4.89875
-4.90125
-4.90625
-4.9025
-4.89875
-4.90125
-4.895
-4.895
-4.89125
-4.89125
-4.88875
-4.8925
-4.89875
-4.9
-4.885
-4.83625
-4.74375
-4.61875
-4.48
-4.3475
-4.2425
-4.20875
-4.25875
-4.36375
-4.48875
-4.60375
-4.6825
-4.72875
-4.755
-4.77125
-4.78625
-4.8075
-4.82375
-4.83125
-4.82875
-4.83
-4.8325
-4.835
-4.835
-4.83625
-4.83875
-4.83875
-4.84125
-4.83625
-4.825
-4.82
-4.8225
-4.8225
-4.82375
-4.8175
-4.81125
-4.81
-4.805
-4.7975
-4.78875
-4.77875
-4.7775
-4.77375
-4.7675
-4.75375
-4.75
-4.7425
-4.7425
-4.74
-4.73625
-4.7325
-4.73375
-4.73125
-4.7275
-4.72
-4.72
-4.71875
-4.7225
-4.72625
-4.725
-4.72625
-4.72875
-4.73125
-4.73375
-4.735
-4.735
-4.74
-4.74875
-4.7525
-4.75375
-4.755
-4.7575
-4.76375
-4.7675
-4.7725
-4.77125
-4.775
-4.77875
-4.7825
-4.785
-4.7975
-4.80125
-4.81375
-4.82125
-4.825
-4.82875
-4.8325
-4.83
-4.82625
-4.8225
-4.82625
-4.83
-4.835
-4.83375
-4.8275
-4.8225
-4.82125
-4.8275
-4.825
-4.8175
-4.81375
-4.81875
-4.8225
-4.82
-4.81375
-4.81375
-4.82
-4.8225
-4.82125
-4.8175
-4.81625
-4.81875
-4.82125
-4.8225
-4.82
-4.81375
-4.8175
-4.82125
-4.8225
-4.82
-4.82375
-4.83
-4.8325
-4.83
-4.825
-4.83125
-4.83375
-4.83875
-4.84375
-4.84625
-4.84625
-4.85125
-4.855
-4.85375
-4.85375
-4.84875
-4.85625
-4.86
-4.865
-4.8575
-4.85375
-4.85
-4.8575
-4.85875
-4.8575
-4.85625
-4.85875
-4.8625
-4.865
-4.86125
-4.8625
-4.86375
-4.8625
-4.8575
-4.855
-4.85625
-4.855
-4.84875
-4.84125
-4.83125
-4.82
-4.81125
-4.805
-4.8
-4.795
-4.79625
-4.805
-4.815
-4.81875
-4.83
-4.84625
-4.85625
-4.86375
-4.86625
-4.86375
-4.865
-4.875
-4.87625
-4.87625
-4.86875
-4.86625
-4.86875
-4.86875
-4.87125
-4.87
-4.87
-4.8725
-4.88125
-4.88375
-4.86
-4.79625
-4.695
-4.57375
-4.44625
-4.33
-4.26125
-4.28125
-4.37375
-4.50125
-4.62
-4.70375
-4.75625
-4.795
-4.8125
-4.825
-4.84125
-4.8575
-4.86875
-4.8725
-4.8725
-4.87625
-4.8825
-4.88625
-4.885
-4.88
-4.8825
-4.8775
-4.88125
-4.88125
-4.87625
-4.87375
-4.86875
-4.8675
-4.86375
-4.86
-4.85875
-4.86125
-4.85875
-4.85
-4.8475
-4.84375
-4.845
-4.84125
-4.8375
-4.82875
-4.82375
-4.82
-4.81875
-4.815
-4.81
-4.805
-4.8025
-4.80125
-4.79375
-4.78625
-4.7825
-4.785
-4.78875
-4.79
-4.78625
-4.7825
-4.78875
-4.8
-4.805
-4.8075
-4.80625
-4.815
-4.81875
-4.81875
-4.81125
-4.82
-4.82
-4.8275
-4.83125
-4.8375
-4.8425
-4.85125
-4.85375
-4.8575
-4.86375
-4.86875
-4.87375
-4.87625
-4.87875
-4.88375
-4.88375
-4.89
-4.89625
-4.89625
-4.89375
-4.89125
-4.89375
-4.89125
-4.885
-4.88
-4.88
-4.87875
-4.8775
-4.87625
-4.87375
-4.8725
-4.87875
-4.87875
-4.87875
-4.875
-4.8725
-4.86875
-4.87125
-4.87125
-4.86875
-4.86875
-4.86875
-4.87125
-4.86875
-4.8675
-4.86375
-4.86625
-4.865
-4.8625
-4.86125
-4.86125
-4.865
-4.865
-4.8625
-4.85875
-4.85625
-4.85875
-4.86625
-4.8675
-4.8625
-4.86
-4.8625
-4.8675
-4.86375
-4.8625
-4.86125
-4.86625
-4.86875
-4.87
-4.86625
-4.86125
-4.86625
-4.86625
-4.86125
-4.8575
-4.85125
-4.85875
-4.86375
-4.85875
-4.855
-4.85375
-4.8525
-4.8475
-4.84
-4.83875
-4.8375
-4.835
-4.82625
-4.82
-4.81125
-4.805
-4.795
-4.79
-4.7875
-4.78375
-4.78375
-4.79125
-4.805
-4.8125
-4.82375
-4.835
-4.8475
-4.85125
-4.85125
-4.8525
-4.85125
-4.85125
-4.855
-4.85625
-4.85125
-4.84875
-4.85375
-4.85375
-4.84875
-4.85
-4.85
-4.855
-4.86625
-4.865
-4.835
-4.76375
-4.655
-4.5225
-4.38875
-4.27625
-4.2125
-4.2275
-4.31625
-4.44875
-4.57
-4.66375
-4.7275
-4.77
-4.7975
-4.81875
-4.84125
-4.85125
-4.86125
-4.86625
-4.875
-4.875
-4.88125
-4.88375
-4.88125
-4.88
-4.88125
-4.8825
-4.8825
-4.88
-4.875
-4.8675
-4.86625
-4.86625
-4.865
-4.85875
-4.8575
-4.8525
-4.85375
-4.84375
-4.83375
-4.835
-4.84125
-4.84
-4.83375
-4.82875
-4.8275
-4.8275
-4.82625
-4.82
-4.81125
-4.80875
-4.80625
-4.80125
-4.79625
-4.79625
-4.79625
-4.795
-4.7975
-4.8
-4.79625
-4.80375
-4.80375
-4.805
-4.805
-4.8075
-4.80625
-4.81375
-4.815
-4.81625
-4.8175
-4.8275
-4.83375
-4.84125
-4.8425
-4.845
-4.8525
-4.8625
-4.87
-4.87875
-4.87625
-4.88
-4.89125
-4.89875
-4.90125
-4.8975
-4.8975
-4.905
-4.90875
-4.90625
-4.90375
-4.90375
-4.9075
-4.90875
-4.9
-4.895
-4.8975
-4.89625
-4.8975
-4.8975
-4.89625
-4.89125
-4.8925
-4.89625
-4.895
-4.8875
-4.89
-4.895
-4.8975
-4.895
-4.89
-4.88625
-4.88875
-4.89125
-4.88875
-4.88375
-4.88125
-4.87875
-4.88
-4.8775
-4.87375
-4.875
-4.88125
-4.8825
-4.8775
-4.87625
-4.87875
-4.8825
-4.88375
-4.8825
-4.8775
-4.875
-4.88125
-4.8875
-4.88375
-4.88125
-4.88375
-4.88875
-4.885
-4.8775
-4.87375
-4.875
-4.88
-4.88125
-4.88125
-4.87625
-4.87375
-4.88
-4.8825
-4.87625
-4.87125
-4.87375
-4.8725
-4.87125
-4.87
-4.86625
-4.86375
-4.8625
-4.86
-4.855
-4.84875
-4.84
-4.835
-4.82375
-4.81125
-4.8025
-4.8025
-4.80375
-4.8075
-4.8075
-4.81125
-4.82125
-4.835
-4.84625
-4.84875
-4.84875
-4.85375
-4.855
-4.86
-4.86375
-4.86625
-4.86875
-4.87
-4.87375
-4.87125
-4.87125
-4.8725
-4.87625
-4.88
-4.88125
-4.88875
-4.88875
-4.8625
-4.7925
-4.67875
-4.5425
-4.41125
-4.2975
-4.2275
-4.23375
-4.31
-4.44
-4.57875
-4.6825
-4.74625
-4.785
-4.81375
-4.84125
-4.86625
-4.88
-4.8875
-4.8925
-4.90125
-4.905
-4.905
-4.90375
-4.90625
-4.91
-4.91375
-4.91
-4.91125
-4.91
-4.9075
-4.9025
-4.8975
-4.89125
-4.89
-4.89125
-4.89375
-4.88875
-4.885
-4.88125
-4.8825
-4.8825
-4.8775
-4.8725
-4.87125
-4.86875
-4.8625
-4.85375
-4.84875
-4.85
-4.845
-4.84
-4.83125
-4.81875
-4.8125
-4.8125
-4.81125
-4.8125
-4.81
-4.81
-4.80875
-4.8125
-4.80875
-4.81375
-4.8175
-4.8275
-4.835
-4.83625
-4.83875
-4.84875
-4.85375
-4.8575
-4.85875
-4.8625
-4.86875
-4.8775
-4.88375
-4.88125
-4.88375
-4.89625
-4.90875
-4.915
-4.9175
-4.9175
-4.92125
-4.9275
-4.93125
-4.9275
-4.92625
-4.9275
-4.93375
-4.935
-4.9325
-4.9275
-4.92875
-4.9275
-4.9325
-4.9275
-4.925
-4.9225
-4.9225
-4.91875
-4.91375
-4.91125
-4.915
-4.92
-4.92
-4.9175
-4.9175
-4.92
-4.925
-4.92375
-4.915
-4.90625
-4.9075
-4.9125
-4.92
-4.92
-4.915
-4.91375
-4.91125
-4.9125
-4.91125
-4.91125
-4.91125
-4.91625
-4.91625
-4.9175
-4.91375
-4.91
-4.9125
-4.9125
-4.91125
-4.91125
-4.90875
-4.90625
-4.91125
-4.90625
-4.9025
-4.905
-4.8975
-4.9
-4.8975
-4.89375
-4.8975
-4.8975
-4.90375
-4.9
-4.89375
-4.89
-4.8925
-4.88875
-4.885
-4.88125
-4.88125
-4.88375
-4.88375
-4.87375
-4.8625
-4.85
-4.84625
-4.83625
-4.8325
-4.83125
-4.835
-4.83875
-4.845
-4.85
-4.86
-4.875
-4.89125
-4.8975
-4.89625
-4.89875
-4.9
-4.90125
-4.89875
-4.90125
-4.9
-4.89875
-4.89875
-4.9
-4.89375
-4.89125
-4.895
-4.895
-4.89625
-4.9025
-4.9025
-4.88125
-4.815
-4.705
-4.57375
-4.44375
-4.3375
-4.29
-4.3225
-4.41875
-4.55125
-4.67625
-4.76125
-4.80875
-4.8375
-4.85375
-4.86625
-4.87875
-4.89125
-4.89875
-4.90625
-4.9075
-4.91
-4.91125
-4.9125
-4.9075
-4.9075
-4.91
-4.9125
-4.90625
-4.90125
-4.8975
-4.9
-4.90375
-4.89875
-4.88625
-4.88625
-4.88625
-4.8875
-4.8875
-4.8875
-4.8875
-4.88125
-4.87875
-4.87375
-4.87375
-4.86875
-4.865
-4.8575
-4.85
-4.8475
-4.84875
-4.8475
-4.84625
-4.83875
-4.83375
-4.83375
-4.83125
-4.82875
-4.825
-4.82
-4.825
-4.8325
-4.8375
-4.835
-4.8375
-4.84125
-4.84625
-4.84625
-4.84625
-4.8475
-4.85125
-4.855
-4.855
-4.855
-4.85375
-4.855
-4.8575
-4.86125
-4.865
-4.8675
-4.87
-4.88
-4.88875
-4.89
-4.885
-4.89125
-4.89125
-4.89125
-4.885
-4.87875
-4.87875
-4.88
-4.87875
-4.8775
-4.8725
-4.8775
-4.87625
-4.875
-4.87
-4.86875
-4.8675
-4.8675
-4.86875
-4.86375
-4.86125
-4.85875
-4.86
-4.85625
-4.8575
-4.86125
-4.86125
-4.86375
-4.86625
-4.86375
-4.8625
-4.85875
-4.8575
-4.85625
-4.8575
-4.85625
-4.85875
-4.8575
-4.85875
-4.85625
-4.855
-4.85875
-4.865
-4.865
-4.86
-4.85875
-4.86125
-4.8575
-4.86625
-4.865
-4.85875
-4.86375
-4.86625
-4.86625
-4.8625
-4.86125
-4.86125
-4.86625
-4.86375
-4.85625
-4.85125
-4.84875
-4.85125
-4.855
-4.8525
-4.84625
-4.83625
-4.83125
-4.825
-4.81625
-4.80625
-4.80625
-4.80625
-4.815
-4.82
-4.82875
-4.84
-4.8525
-4.8575
-4.86125
-4.8625
-4.86375
-4.86625
-4.86375
-4.85875
-4.85125
-4.85
-4.85125
-4.8575
-4.8575
-4.855
-4.85125
-4.85625
-4.8575
-4.86
-4.85875
-4.83375
-4.765
-4.65375
-4.51875
-4.39
-4.28125
-4.22375
-4.2425
-4.33
-4.4575
-4.5825
-4.66875
-4.72375
-4.7575
-4.7825
-4.80125
-4.8175
-4.835
-4.84
-4.8425
-4.84625
-4.85125
-4.85375
-4.85125
-4.84625
-4.84625
-4.845
-4.84125
-4.835
-4.82875
-4.8275
-4.8275
-4.82625
-4.82
-4.81375
-4.81
-4.8025
-4.7975
-4.79
-4.785
-4.78375
-4.77625
-4.77
-4.765
-4.76125
-4.75625
-4.75125
-4.7425
-4.735
-4.72625
-4.725
-4.72
-4.71875
-4.71375
-4.71
-4.70625
-4.70625
-4.70625
-4.70125
-4.7
-4.70125
-4.7075
-4.71375
-4.71125
-4.715
-4.725
-4.73125
-4.735
-4.7375
-4.73375
-4.73875
-4.745
-4.75
-4.7475
-4.75
-4.7575
-4.76875
-4.7725
-4.775
-4.78125
-4.7875
-4.795
-4.8
-4.80125
-4.80125
-4.80625
-4.80875
-4.8125
-4.8125
-4.81125
-4.81125
-4.815
-4.8125
-4.8125
-4.81125
-4.81125
-4.81125
-4.81125
-4.8025
-4.80375
-4.8075
-4.8125
-4.81375
-4.81
-4.8075
-4.81
-4.81375
-4.815
-4.81625
-4.81625
-4.82125
-4.8225
-4.82125
-4.82
-4.82
-4.82
-4.82375
-4.8275
-4.825
-4.82125
-4.82625
-4.8325
-4.83625
-4.83625
-4.835
-4.83875
-4.84125
-4.84
-4.8375
-4.835
-4.8425
-4.8375
-4.83875
-4.8375
-4.8375
-4.83875
-4.84
-4.845
-4.845
-4.845
-4.845
-4.845
-4.84375
-4.84375
-4.83875
-4.83875
-4.85125
-4.8525
-4.84625
-4.84
-4.83875
-4.83875
-4.83625
-4.83
-4.82375
-4.82375
-4.82875
-4.8275
-4.81875
-4.80875
-4.8
-4.795
-4.78375
-4.77875
-4.77875
-4.78875
-4.7975
-4.80875
-4.81625
-4.8225
-4.8375
-4.8425
-4.84375
-4.8425
-4.84375
-4.855
-4.855
-4.85875
-4.8575
-4.85625
-4.8575
-4.85625
-4.85625
-4.85375
-4.855
-4.85375
-4.8575
-4.865
-4.86625
-4.835
-4.765
-4.65875
-4.52625
-4.385
-4.27
-4.1975
-4.20625
-4.285
-4.41125
-4.54
-4.6425
-4.70625
-4.74
-4.7675
-4.7875
-4.80625
-4.825
-4.83875
-4.8425
-4.8475
-4.85
-4.85375
-4.85375
-4.85125
-4.85
-4.85125
-4.8525
-4.8575
-4.85375
-4.8525
-4.86125
-4.8625
-4.855
-4.84875
-4.845
-4.84875
-4.8475
-4.845
-4.8375
-4.8375
-4.8425
-4.8425
-4.83875
-4.8325
-4.83125
-4.83125
-4.82875
-4.82625
-4.82125
-4.8175
-4.8125
-4.81125
-4.81125
-4.80375
-4.8
-4.79875
-4.8
-4.80375
-4.805
-4.80375
-4.80625
-4.8075
-4.8125
-4.81375
-4.82
-4.825
-4.83125
-4.8375
-4.84
-4.84
-4.84375
-4.845
-4.845
-4.8475
-4.85
-4.8525
-4.8575
-4.86125
-4.86125
-4.86375
-4.8725
-4.87375
-4.87375
-4.88
-4.88125
-4.8875
-4.89
-4.89125
-4.88625
-4.885
-4.8825
-4.885
-4.88
-4.87875
-4.88125
-4.8875
-4.8875
-4.88625
-4.8825
-4.8825
-4.88125
-4.88125
-4.8825
-4.8725
-4.8725
-4.87875
-4.885
-4.885
-4.87875
-4.87375
-4.87625
-4.87875
-4.875
-4.87
-4.86875
-4.8675
-4.87125
-4.87375
-4.87375
-4.86875
-4.8725
-4.8675
-4.8725
-4.8725
-4.87375
-4.87625
-4.87875
-4.88
-4.88375
-4.885
-4.88875
-4.88875
-4.88875
-4.88375
-4.8825
-4.88625
-4.89
-4.8925
-4.89125
-4.8925
-4.89125
-4.8925
-4.8925
-4.89
-4.88875
-4.89
-4.88875
-4.88875
-4.88125
-4.88125
-4.88625
-4.89125
-4.88875
-4.885
-4.88
-4.88125
-4.8825
-4.8825
-4.8725
-4.86625
-4.86
-4.85375
-4.84125
-4.8325
-4.83
-4.84
-4.83875
-4.84125
-4.845
-4.85375
-4.8725
-4.88875
-4.89875
-4.89
-4.89
-4.895
-4.8975
-4.89375
-4.89
-4.88625
-4.89125
-4.89625
-4.8975
-4.89375
-4.89375
-4.89125
-4.895
-4.895
-4.90375
-4.90375
-4.88375
-4.82125
-4.71375
-4.58
-4.44375
-4.3275
-4.2525
-4.25125
-4.3225
-4.45375
-4.59
-4.69625
-4.75625
-4.79125
-4.8175
-4.8425
-4.865
-4.88
-4.88875
-4.89375
-4.90375
-4.90625
-4.91125
-4.90875
-4.9075
-4.9125
-4.9125
-4.9125
-4.90625
-4.90125
-4.9
-4.90125
-4.89125
-4.88625
-4.88625
-4.88875
-4.89
-4.88625
-4.8775
-4.87375
-4.87375
-4.87375
-4.86875
-4.86
-4.8525
-4.85125
-4.85
-4.845
-4.84
-4.8375
-4.835
-4.8325
-4.82625
-4.82
-4.81625
-4.81375
-4.81875
-4.82125
-4.825
-4.8325
-4.8425
-4.845
-4.84625
-4.8425
-4.84375
-4.84375
-4.85125
-4.8525
-4.85125
-4.85125
-4.855
-4.86
-4.8575
-4.855
-4.8575
-4.8625
-4.86875
-4.87375
-4.87625
-4.87875
-4.88
-4.88875
-4.8975
-4.90125
-4.905
-4.91625
-4.91875
-4.9175
-4.91625
-4.9125
-4.9075
-4.90375
-4.905
-4.90375
-4.90125
-4.9025
-4.9
-4.89875
-4.89625
-4.89875
-4.90375
-4.9
-4.89875
-4.8975
-4.89875
-4.8975
-4.8975
-4.8975
-4.89875
-4.8975
-4.90625
-4.9025
-4.89875
-4.89375
-4.8925
-4.89375
-4.90125
-4.9
-4.89875
-4.8975
-4.90125
-4.905
-4.90625
-4.9025
-4.9025
-4.9025
-4.90125
-4.90125
-4.90375
-4.9025
-4.9025
-4.905
-4.90875
-4.905
-4.9
-4.9
-4.9025
-4.9025
-4.9
-4.8975
-4.8975
-4.89625
-4.89625
-4.8925
-4.88875
-4.89
-4.89375
-4.89375
-4.89
-4.8925
-4.8975
-4.9
-4.8925
-4.88625
-4.88375
-4.89125
-4.88875
-4.8825
-4.86875
-4.85875
-4.8475
-4.84125
-4.8375
-4.8375
-4.84125
-4.84875
-4.85375
-4.86125
-4.87
-4.88125
-4.8925
-4.89875
-4.89875
-4.89625
-4.89375
-4.89375
-4.895
-4.89375
-4.89375
-4.89
-4.89375
-4.89125
-4.89375
-4.89
-4.8925
-4.8975
-4.9025
-4.90125
-4.88375
-4.82875
-4.73875
-4.61875
-4.4875
-4.36875
-4.2925
-4.3
-4.38
-4.50375
-4.62375
-4.7175
-4.77875
-4.80625
-4.82625
-4.84
-4.8575
-4.87375
-4.885
-4.8925
-4.89375
-4.9
-4.90375
-4.90125
-4.89625
-4.89375
-4.89125
-4.8925
-4.8925
-4.89
-4.885
-4.8825
-4.88125
-4.88
-4.8725
-4.8625
-4.86125
-4.86625
-4.8675
-4.86375
-4.8625
-4.86125
-4.8625
-4.85875
-4.85375
-4.84625
-4.84375
-4.84625
-4.845
-4.83875
-4.82875
-4.8275
-4.82375
-4.81875
-4.81625
-4.81125
-4.80875
-4.81
-4.815
-4.81375
-4.81375
-4.815
-4.81875
-4.8175
-4.82
-4.82375
-4.82625
-4.8325
-4.8375
-4.84
-4.835
-4.82875
-4.82875
-4.82875
-4.83375
-4.83625
-4.84125
-4.85
-4.8525
-4.8575
-4.86
-4.86625
-4.87375
-4.88125
-4.88625
-4.89375
-4.89625
-4.9025
-4.90625
-4.905
-4.89625
-4.895
-4.89875
-4.89875
-4.89125
-4.8875
-4.885
-4.88625
-4.885
-4.88125
-4.87875
-4.88
-4.88625
-4.88375
-4.88
-4.87375
-4.87
-4.8725
-4.87375
-4.87
-4.86875
-4.87125
-4.875
-4.87625
-4.875
-4.87125
-4.86875
-4.87375
-4.87875
-4.87625
-4.875
-4.87
-4.875
-4.875
-4.87125
-4.86875
-4.87125
-4.875
-4.8775
-4.8725
-4.8675
-4.865
-4.86625
-4.8675
-4.87125
-4.86875
-4.86625
-4.87125
-4.875
-4.875
-4.87
-4.8675
-4.86625
-4.86875
-4.86625
-4.86625
-4.865
-4.87125
-4.86625
-4.865
-4.85375
-4.85
-4.85
-4.85375
-4.845
-4.84375
-4.8375
-4.83
-4.82375
-4.81375
-4.80875
-4.8075
-4.81625
-4.825
-4.83125
-4.83625
-4.84625
-4.86125
-4.87
-4.87
-4.87
-4.87
-4.87125
-4.87
-4.8675
-4.8625
-4.8575
-4.86125
-4.865
-4.8625
-4.85875
-4.86125
-4.8625
-4.8625
-4.8675
-4.86375
-4.8325
-4.7575
-4.645
-4.51125
-4.3775
-4.27375
-4.2225
-4.24375
-4.3375
-4.47
-4.59125
-4.68125
-4.7375
-4.77
-4.79
-4.81125
-4.83125
-4.84625
-4.85375
-4.85625
-4.86
-4.86625
-4.8675
-4.8625
-4.85625
-4.85375
-4.855
-4.85625
-4.84875
-4.84
-4.83125
-4.83375
-4.83875
-4.83375
-4.8275
-4.82875
-4.83
-4.8275
-4.8225
-4.8175
-4.8175
-4.81625
-4.81625
-4.81125
-4.80625
-4.8025
-4.80125
-4.8
-4.79625
-4.79125
-4.7925
-4.79
-4.78625
-4.78
-4.77375
-4.76875
-4.77
-4.77
-4.77
-4.7675
-4.77
-4.775
-4.78
-4.78125
-4.78375
-4.785
-4.79
-4.795
-4.79375
-4.795
-4.80125
-4.80625
-4.80875
-4.8125
-4.8125
-4.815
-4.82125
-4.82875
-4.83125
-4.8325
-4.83875
-4.8475
-4.85375
-4.85875
-4.8625
-4.86375
-4.8675
-4.86875
-4.86875
-4.87
-4.8675
-4.87
-4.87125
-4.8625
-4.86375
-4.86625
-4.8725
-4.865
-4.8625
-4.85875
-4.86
-4.86375
-4.8625
-4.85875
-4.85125
-4.855
-4.8675
-4.8675
-4.85875
-4.85125
-4.84875
-4.8525
-4.85875
-4.8575
-4.85375
-4.855
-4.86125
-4.8625
-4.86375
-4.85625
-4.85625
-4.86125
-4.86625
-4.86125
-4.85625
-4.85375
-4.855
-4.85375
-4.8525
-4.84625
-4.84
-4.84875
-4.85375
-4.85125
-4.845
-4.84375
-4.8425
-4.8425
-4.8375
-4.8325
-4.83125
-4.835
-4.82875
-4.8275
-4.82375
-4.8225
-4.82125
-4.8225
-4.82
-4.82
-4.81625
-4.8175
-4.81625
-4.81
-4.80125
-4.8
-4.79875
-4.795
-4.79
-4.78875
-4.78875
-4.79
-4.78375
-4.7725
-4.75875
-4.7475
-4.73875
-4.74
-4.73875
-4.7325
-4.73375
-4.74125
-4.7525
-4.76
-4.76875
-4.77625
-4.785
-4.79
-4.79
-4.785
-4.77875
-4.7825
-4.78875
-4.78375
-4.7825
-4.78375
-4.7925
-4.78875
-4.785
-4.7775
-4.77625
-4.78375
-4.79
-4.775
-4.72375
